  -8.6975098e-03   3.9615955e-04
  -8.0871582e-03   4.3360104e-04
  -8.3923340e-03   4.7237607e-04
  -8.3923340e-03   5.1212597e-04
  -7.9345703e-03   5.5256316e-04
  -6.7901611e-03   5.9345761e-04
  -9.2315674e-03   6.3462606e-04
  -1.2130737e-02   6.7592327e-04
  -1.3580322e-02   7.1723498e-04
  -1.3275146e-02   7.5847221e-04
  -1.1978149e-02   7.9956661e-04
  -1.4038086e-02   8.4046664e-04
  -1.5182495e-02   8.8113446e-04
  -1.7013550e-02   9.2154339e-04
  -1.9073486e-02   9.6167577e-04
  -2.2811890e-02   1.0015212e-03
  -2.4108887e-02   1.0410752e-03
  -2.5100708e-02   1.0803377e-03
  -2.9449463e-02   1.1193126e-03
  -2.8305054e-02   1.1580062e-03
  -2.1362305e-02   1.1964271e-03
  -2.0065308e-02   1.2345855e-03
  -1.9073486e-02   1.2724924e-03
  -1.5869141e-02   1.3101597e-03
  -1.2969971e-02   1.3475995e-03
  -1.1444092e-02   1.3848241e-03
  -1.0833740e-02   1.4218454e-03
  -1.1138916e-02   1.4586753e-03
  -1.0681152e-02   1.4953250e-03
  -9.0789795e-03   1.5318054e-03
  -7.4005127e-03   1.5681267e-03
  -8.0871582e-03   1.6042983e-03
  -8.5449219e-03   1.6403290e-03
  -7.5531006e-03   1.6762270e-03
  -7.7819824e-03   1.7119997e-03
  -9.5367432e-03   1.7476536e-03
  -1.3580322e-02   1.7831946e-03
  -1.3427734e-02   1.8186280e-03
  -1.8615723e-02   1.8539583e-03
  -1.9760132e-02   1.8891893e-03
  -1.6021729e-02   1.9243244e-03
  -1.5335083e-02   1.9593661e-03
  -1.4877319e-02   1.9943164e-03
  -1.7471313e-02   2.0291771e-03
  -1.8920898e-02   2.0639489e-03
  -1.9454956e-02   2.0986326e-03
  -1.8768311e-02   2.1332282e-03
  -1.9454956e-02   2.1677354e-03
  -1.9760132e-02   2.2021534e-03
  -2.0370483e-02   2.2364813e-03
  -2.0523071e-02   2.2707176e-03
  -2.0523071e-02   2.3048606e-03
  -2.2506714e-02   2.3389083e-03
  -2.4795532e-02   2.3728585e-03
  -2.5558472e-02   2.4067086e-03
  -2.4108887e-02   2.4404559e-03
  -2.3956299e-02   2.4740975e-03
  -2.4566650e-02   2.5076301e-03
  -2.7008057e-02   2.5410506e-03
  -2.3117065e-02   2.5743554e-03
  -1.7318726e-02   2.6075409e-03
  -1.8310547e-02   2.6406034e-03
  -1.7471313e-02   2.6735388e-03
  -1.5716553e-02   2.7063433e-03
  -1.4038086e-02   2.7390127e-03
  -1.3732910e-02   2.7715428e-03
  -1.4266968e-02   2.8039292e-03
  -1.2741089e-02   2.8361676e-03
  -1.3580322e-02   2.8682534e-03
  -1.2435913e-02   2.9001822e-03
  -1.4266968e-02   2.9319493e-03
  -1.5716553e-02   2.9635501e-03
  -1.6174316e-02   2.9949797e-03
  -1.4419556e-02   3.0262334e-03
  -1.2741089e-02   3.0573063e-03
  -1.0833740e-02   3.0881936e-03
  -9.5367432e-03   3.1188903e-03
  -9.6893311e-03   3.1493914e-03
  -1.7471313e-02   3.1796919e-03
  -1.9912720e-02   3.2097868e-03
  -1.5335083e-02   3.2396710e-03
  -1.4572144e-02   3.2693393e-03
  -1.4572144e-02   3.2987867e-03
  -1.4419556e-02   3.3280080e-03
  -1.3275146e-02   3.3569979e-03
  -1.2741089e-02   3.3857514e-03
  -1.1444092e-02   3.4142631e-03
  -1.2969971e-02   3.4425278e-03
  -1.5716553e-02   3.4705404e-03
  -1.7013550e-02   3.4982954e-03
  -1.6174316e-02   3.5257878e-03
  -1.6479492e-02   3.5530121e-03
  -1.7166138e-02   3.5799632e-03
  -1.5563965e-02   3.6066358e-03
  -1.4877319e-02   3.6330245e-03
  -1.4724731e-02   3.6591242e-03
  -1.2283325e-02   3.6849296e-03
  -1.0833740e-02   3.7104355e-03
  -1.4877319e-02   3.7356366e-03
  -1.6860962e-02   3.7605277e-03
  -1.1291504e-02   3.7851037e-03
  -1.0375977e-02   3.8093594e-03
  -1.2283325e-02   3.8332896e-03
  -1.3580322e-02   3.8568893e-03
  -1.3732910e-02   3.8801535e-03
  -1.2969971e-02   3.9030770e-03
  -1.2741089e-02   3.9256550e-03
  -1.1825562e-02   3.9478825e-03
  -1.1138916e-02   3.9697546e-03
  -1.2435913e-02   3.9912665e-03
  -1.2283325e-02   4.0124134e-03
  -1.3580322e-02   4.0331907e-03
  -1.4038086e-02   4.0535938e-03
  -1.3885498e-02   4.0736180e-03
  -1.3275146e-02   4.0932590e-03
  -1.2283325e-02   4.1125123e-03
  -1.1825562e-02   4.1313737e-03
  -1.0986328e-02   4.1498389e-03
  -1.8768311e-02   4.1679039e-03
  -2.1667480e-02   4.1855647e-03
  -1.6632080e-02   4.2028173e-03
  -1.6174316e-02   4.2196581e-03
  -1.6860962e-02   4.2360834e-03
  -1.7471313e-02   4.2520897e-03
  -1.7623901e-02   4.2676735e-03
  -1.8463135e-02   4.2828317e-03
  -1.8768311e-02   4.2975612e-03
  -1.8920898e-02   4.3118590e-03
  -1.9454956e-02   4.3257224e-03
  -2.1057129e-02   4.3391486e-03
  -2.3269653e-02   4.3521353e-03
  -2.3117065e-02   4.3646802e-03
  -2.3269653e-02   4.3767813e-03
  -2.3117065e-02   4.3884365e-03
  -2.2659302e-02   4.3996441e-03
  -2.0904541e-02   4.4104028e-03
  -1.8463135e-02   4.4207111e-03
  -1.6860962e-02   4.4305680e-03
  -2.0370483e-02   4.4399726e-03
  -2.0065308e-02   4.4489243e-03
  -1.5029907e-02   4.4574226e-03
  -1.3732910e-02   4.4654675e-03
  -1.4572144e-02   4.4730588e-03
  -1.6479492e-02   4.4801971e-03
  -1.6174316e-02   4.4868828e-03
  -1.4572144e-02   4.4931168e-03
  -1.1825562e-02   4.4989002e-03
  -1.1978149e-02   4.5042345e-03
  -1.0833740e-02   4.5091212e-03
  -1.0833740e-02   4.5135624e-03
  -1.0528564e-02   4.5175602e-03
  -9.9945068e-03   4.5211172e-03
  -9.0789795e-03   4.5242364e-03
  -8.8500977e-03   4.5269207e-03
  -9.0789795e-03   4.5291738e-03
  -7.7819824e-03   4.5309994e-03
  -7.4005127e-03   4.5324015e-03
  -8.5449219e-03   4.5333848e-03
  -1.2969971e-02   4.5339539e-03
  -1.5182495e-02   4.5341139e-03
  -1.3122559e-02   4.5338704e-03
  -1.6632080e-02   4.5332291e-03
  -1.9226074e-02   4.5321962e-03
  -2.0904541e-02   4.5307782e-03
  -2.4566650e-02   4.5289819e-03
  -2.6702881e-02   4.5268146e-03
  -3.0136108e-02   4.5242839e-03
  -3.0441284e-02   4.5213978e-03
  -2.7847290e-02   4.5181646e-03
  -2.4948120e-02   4.5145929e-03
  -2.3803711e-02   4.5106919e-03
  -2.3498535e-02   4.5064710e-03
  -2.1820068e-02   4.5019401e-03
  -2.0904541e-02   4.4971093e-03
  -2.1057129e-02   4.4919893e-03
  -2.0370483e-02   4.4865909e-03
  -1.7929077e-02   4.4809257e-03
  -1.4419556e-02   4.4750052e-03
  -1.6326904e-02   4.4688417e-03
  -1.2969971e-02   4.4624475e-03
  -7.4005127e-03   4.4558357e-03
  -1.0147095e-02   4.4490193e-03
  -1.3427734e-02   4.4420121e-03
  -1.5335083e-02   4.4348281e-03
  -1.2283325e-02   4.4274816e-03
  -7.0953369e-03   4.4199873e-03
  -7.6293945e-04   4.4123605e-03
   4.6539307e-03   4.4046165e-03
   1.2283325e-02   4.3967712e-03
   1.9912720e-02   4.3888409e-03
   2.1667480e-02   4.3808419e-03
   1.5792847e-02   4.3727913e-03
   8.2397461e-03   4.3647063e-03
   1.9073486e-03   4.3566044e-03
  -3.2043457e-03   4.3485035e-03
  -9.0789795e-03   4.3404219e-03
  -1.6326904e-02   4.3323782e-03
  -2.4566650e-02   4.3243911e-03
  -3.7689209e-02   4.3164799e-03
  -4.0969849e-02   4.3086640e-03
  -3.5324097e-02   4.3009631e-03
  -3.3340454e-02   4.2933973e-03
  -3.2196045e-02   4.2859870e-03
  -2.8686523e-02   4.2787525e-03
  -2.5863647e-02   4.2717149e-03
  -2.4948120e-02   4.2648951e-03
  -2.1514893e-02   4.2583144e-03
  -1.8157959e-02   4.2519944e-03
  -1.3732910e-02   4.2459568e-03
  -8.6975098e-03   4.2402235e-03
  -5.3405762e-03   4.2348167e-03
  -6.4849854e-03   4.2297586e-03
  -9.9945068e-03   4.2250718e-03
  -1.2435913e-02   4.2207788e-03
  -1.3275146e-02   4.2169024e-03
  -1.3732910e-02   4.2134656e-03
  -1.2588501e-02   4.2104913e-03
  -1.0986328e-02   4.2080026e-03
  -1.3122559e-02   4.2060229e-03
  -1.3275146e-02   4.2045753e-03
  -5.9509277e-03   4.2036832e-03
  -5.6457520e-03   4.2033701e-03
  -6.7901611e-03   4.2036593e-03
  -8.3923340e-03   4.2045742e-03
  -9.5367432e-03   4.2061385e-03
  -8.5449219e-03   4.2083754e-03
  -8.2397461e-03   4.2113085e-03
  -1.0147095e-02   4.2149611e-03
  -1.3427734e-02   4.2193566e-03
  -1.6326904e-02   4.2245181e-03
  -1.5869141e-02   4.2304690e-03
  -1.3427734e-02   4.2372322e-03
  -9.9945068e-03   4.2448307e-03
  -9.8419189e-03   4.2532874e-03
  -9.2315674e-03   4.2626249e-03
  -1.0528564e-02   4.2728658e-03
  -1.1291504e-02   4.2840323e-03
  -8.8500977e-03   4.2961466e-03
  -9.8419189e-03   4.3092307e-03
  -7.9345703e-03   4.3233063e-03
  -3.2043457e-03   4.3383947e-03
  -4.5013428e-03   4.3545173e-03
  -6.2561035e-03   4.3716949e-03
  -6.9427490e-03   4.3899482e-03
  -7.4005127e-03   4.4092975e-03
  -8.0871582e-03   4.4297629e-03
  -8.3923340e-03   4.4513640e-03
  -7.9345703e-03   4.4741201e-03
  -7.9345703e-03   4.4980502e-03
  -9.9945068e-03   4.5231728e-03
  -1.3427734e-02   4.5495062e-03
  -1.3580322e-02   4.5770681e-03
  -1.3732910e-02   4.6058759e-03
  -1.3580322e-02   4.6359464e-03
  -1.4419556e-02   4.6672962e-03
  -1.3275146e-02   4.6999411e-03
  -1.4266968e-02   4.7338966e-03
  -1.3275146e-02   4.7691778e-03
  -1.4419556e-02   4.8057992e-03
  -1.1138916e-02   4.8437746e-03
  -5.3405762e-03   4.8831176e-03
  -4.5013428e-03   4.9238409e-03
  -2.8991699e-03   4.9659569e-03
  -1.6021729e-03   5.0094774e-03
  -3.6621094e-03   5.0544133e-03
  -5.1879883e-03   5.1007754e-03
  -8.6975098e-03   5.1485734e-03
  -8.8500977e-03   5.1978168e-03
  -8.5449219e-03   5.2485142e-03
  -8.6975098e-03   5.3006735e-03
  -9.3841553e-03   5.3543023e-03
  -1.1444092e-02   5.4094071e-03
  -1.0528564e-02   5.4659941e-03
  -1.0986328e-02   5.5240685e-03
  -1.1978149e-02   5.5836351e-03
  -1.3427734e-02   5.6446977e-03
  -1.4724731e-02   5.7072596e-03
  -1.5182495e-02   5.7713233e-03
  -2.2811890e-02   5.8368906e-03
  -2.4948120e-02   5.9039626e-03
  -2.0217896e-02   5.9725396e-03
  -1.9454956e-02   6.0426211e-03
  -1.6174316e-02   6.1142061e-03
  -1.1444092e-02   6.1872925e-03
  -1.1138916e-02   6.2618776e-03
  -1.2969971e-02   6.3379580e-03
  -1.5869141e-02   6.4155295e-03
  -1.5029907e-02   6.4945870e-03
  -1.3885498e-02   6.5751246e-03
  -1.5716553e-02   6.6571359e-03
  -1.6860962e-02   6.7406135e-03
  -1.4724731e-02   6.8255492e-03
  -1.0147095e-02   6.9119340e-03
  -7.2479248e-03   6.9997583e-03
  -7.9345703e-03   7.0890114e-03
  -1.1672974e-02   7.1796821e-03
  -1.7471313e-02   7.2717583e-03
  -2.3498535e-02   7.3652270e-03
  -3.2730103e-02   7.4600745e-03
  -3.6926270e-02   7.5562865e-03
  -3.4027100e-02   7.6538475e-03
  -3.3874512e-02   7.7527416e-03
  -3.2577515e-02   7.8529519e-03
  -2.9983521e-02   7.9544608e-03
  -2.8152466e-02   8.0572499e-03
  -2.6397705e-02   8.1613000e-03
  -2.4261475e-02   8.2665913e-03
  -2.0675659e-02   8.3731030e-03
  -2.0065308e-02   8.4808138e-03
  -1.9607544e-02   8.5897014e-03
  -1.7929077e-02   8.6997430e-03
  -1.8615723e-02   8.8109149e-03
  -2.0675659e-02   8.9231927e-03
  -2.5405884e-02   9.0365513e-03
  -2.4566650e-02   9.1509650e-03
  -2.3498535e-02   9.2664073e-03
  -2.0217896e-02   9.3828511e-03
  -1.8768311e-02   9.5002683e-03
  -2.1667480e-02   9.6186307e-03
  -2.2811890e-02   9.7379089e-03
  -1.8615723e-02   9.8580733e-03
  -1.6479492e-02   9.9790933e-03
  -1.4419556e-02   1.0100938e-02
  -1.2283325e-02   1.0223576e-02
  -1.3580322e-02   1.0346974e-02
  -1.4266968e-02   1.0471100e-02
  -1.6479492e-02   1.0595921e-02
  -2.0217896e-02   1.0721403e-02
  -2.0523071e-02   1.0847511e-02
  -1.9912720e-02   1.0974210e-02
  -1.8920898e-02   1.1101465e-02
  -1.7929077e-02   1.1229240e-02
  -1.6479492e-02   1.1357498e-02
  -1.4877319e-02   1.1486203e-02
  -1.2588501e-02   1.1615318e-02
  -8.6975098e-03   1.1744804e-02
  -6.4849854e-03   1.1874624e-02
  -4.9591064e-03   1.2004740e-02
  -1.1978149e-02   1.2135112e-02
  -1.2588501e-02   1.2265701e-02
  -7.9345703e-03   1.2396469e-02
  -7.4005127e-03   1.2527375e-02
  -7.9345703e-03   1.2658379e-02
  -1.4572144e-02   1.2789442e-02
  -2.1362305e-02   1.2920522e-02
  -2.5100708e-02   1.3051580e-02
  -2.3956299e-02   1.3182574e-02
  -2.0904541e-02   1.3313463e-02
  -1.8310547e-02   1.3444207e-02
  -1.5182495e-02   1.3574763e-02
  -1.2969971e-02   1.3705091e-02
  -1.0147095e-02   1.3835150e-02
  -7.0953369e-03   1.3964897e-02
  -6.4849854e-03   1.4094291e-02
  -7.7819824e-03   1.4223291e-02
  -1.0833740e-02   1.4351856e-02
  -1.4572144e-02   1.4479943e-02
  -2.2354126e-02   1.4607511e-02
  -4.0283203e-02   1.4734520e-02
  -4.8751831e-02   1.4860928e-02
  -3.7689209e-02   1.4986694e-02
  -2.2506714e-02   1.5111777e-02
  -1.7166138e-02   1.5236136e-02
  -2.9144287e-02   1.5359730e-02
  -3.6926270e-02   1.5482520e-02
  -2.3803711e-02   1.5604466e-02
   1.0147095e-02   1.5725527e-02
   3.4332275e-02   1.5845664e-02
   2.9602051e-02   1.5964837e-02
   5.4931641e-03   1.6083008e-02
  -1.1825562e-02   1.6200139e-02
  -3.8909912e-03   1.6316191e-02
   2.0370483e-02   1.6431125e-02
   4.4860840e-02   1.6544906e-02
   5.7144165e-02   1.6657495e-02
   5.9432983e-02   1.6768857e-02
   5.5236816e-02   1.6878955e-02
   3.6697388e-02   1.6987753e-02
  -8.8500977e-03   1.7095217e-02
  -6.1416626e-02   1.7201312e-02
  -8.8272095e-02   1.7306004e-02
  -8.0642700e-02   1.7409260e-02
  -5.4702759e-02   1.7511046e-02
  -3.7078857e-02   1.7611330e-02
  -2.3269653e-02   1.7710081e-02
  -3.0517578e-03   1.7807267e-02
   8.8500977e-03   1.7902858e-02
   6.7901611e-03   1.7996825e-02
   3.2043457e-03   1.8089137e-02
   9.1552734e-03   1.8179767e-02
   1.9378662e-02   1.8268687e-02
   1.9531250e-02   1.8355870e-02
   1.5029907e-02   1.8441289e-02
   1.4038086e-02   1.8524919e-02
   1.6479492e-02   1.8606735e-02
   1.6479492e-02   1.8686712e-02
   1.4495850e-02   1.8764828e-02
   1.3885498e-02   1.8841060e-02
   5.6457520e-03   1.8915386e-02
  -3.0517578e-04   1.8987786e-02
   1.6021729e-03   1.9058238e-02
  -9.1552734e-04   1.9126724e-02
  -5.3405762e-03   1.9193224e-02
  -1.6326904e-02   1.9257723e-02
  -2.6702881e-02   1.9320201e-02
  -3.5324097e-02   1.9380644e-02
  -4.1961670e-02   1.9439037e-02
  -4.6768188e-02   1.9495364e-02
  -5.2185059e-02   1.9549613e-02
  -5.4931641e-02   1.9601771e-02
  -5.5847168e-02   1.9651827e-02
  -5.4931641e-02   1.9699769e-02
  -5.4397583e-02   1.9745587e-02
  -5.3482056e-02   1.9789274e-02
  -4.9591064e-02   1.9830820e-02
  -4.3869019e-02   1.9870219e-02
  -3.6926270e-02   1.9907464e-02
  -2.8686523e-02   1.9942549e-02
  -2.7160645e-02   1.9975471e-02
  -2.1667480e-02   2.0006226e-02
  -1.3732910e-02   2.0034812e-02
  -1.2741089e-02   2.0061226e-02
  -1.0681152e-02   2.0085467e-02
  -8.5449219e-03   2.0107537e-02
  -3.8909912e-03   2.0127436e-02
   2.3651123e-03   2.0145167e-02
   8.5449219e-03   2.0160731e-02
   1.0986328e-02   2.0174134e-02
   1.2130737e-02   2.0185380e-02
   1.3046265e-02   2.0194474e-02
   1.3046265e-02   2.0201424e-02
   1.5182495e-02   2.0206237e-02
   1.4724731e-02   2.0208921e-02
   1.4343262e-02   2.0209486e-02
   1.2741089e-02   2.0207943e-02
   9.5367432e-03   2.0204303e-02
   5.4931641e-03   2.0198577e-02
   0.0000000e+00   2.0190780e-02
  -1.1138916e-02   2.0180924e-02
  -2.2201538e-02   2.0169026e-02
  -2.9983521e-02   2.0155101e-02
  -4.3716431e-02   2.0139165e-02
  -5.7296753e-02   2.0121237e-02
  -7.1258545e-02   2.0101334e-02
  -8.0642700e-02   2.0079477e-02
  -7.9498291e-02   2.0055685e-02
  -6.9503784e-02   2.0029980e-02
  -5.9432983e-02   2.0002383e-02
  -5.1345825e-02   1.9972917e-02
  -4.2114258e-02   1.9941607e-02
  -3.4484863e-02   1.9908476e-02
  -3.4027100e-02   1.9873550e-02
  -3.6621094e-02   1.9836855e-02
  -3.8986206e-02   1.9798418e-02
  -3.8833618e-02   1.9758267e-02
  -3.6621094e-02   1.9716430e-02
  -2.9983521e-02   1.9672936e-02
  -1.8768311e-02   1.9627815e-02
  -1.2741089e-02   1.9581099e-02
  -1.0833740e-02   1.9532818e-02
  -2.1209717e-02   1.9483005e-02
  -5.0048828e-02   1.9431693e-02
  -7.7896118e-02   1.9378916e-02
  -9.3460083e-02   1.9324707e-02
  -9.2163086e-02   1.9269101e-02
  -7.7133179e-02   1.9212134e-02
  -5.2642822e-02   1.9153843e-02
  -2.6702881e-02   1.9094264e-02
  -5.1879883e-03   1.9033434e-02
   1.1749268e-02   1.8971391e-02
   3.5934448e-02   1.8908174e-02
   7.0419312e-02   1.8843821e-02
   1.0688782e-01   1.8778373e-02
   1.2733459e-01   1.8711869e-02
   1.2016296e-01   1.8644350e-02
   9.2926025e-02   1.8575856e-02
   6.4086914e-02   1.8506429e-02
   4.3029785e-02   1.8436111e-02
   2.5405884e-02   1.8364943e-02
   1.1978149e-02   1.8292968e-02
   5.2642822e-03   1.8220230e-02
  -1.7547607e-03   1.8146771e-02
  -2.5939941e-03   1.8072634e-02
   7.6293945e-04   1.7997863e-02
   4.9591064e-03   1.7922502e-02
   5.4931641e-03   1.7846596e-02
   1.9073486e-03   1.7770188e-02
  -6.1035156e-04   1.7693323e-02
  -3.0517578e-04   1.7616045e-02
   3.0517578e-03   1.7538399e-02
   3.9672852e-03   1.7460431e-02
   1.9073486e-03   1.7382184e-02
   7.6293945e-05   1.7303704e-02
   3.0517578e-04   1.7225035e-02
   1.0681152e-03   1.7146224e-02
  -5.6457520e-03   1.7067313e-02
  -2.1514893e-02   1.6988348e-02
  -3.5934448e-02   1.6909374e-02
  -4.6157837e-02   1.6830435e-02
  -4.2266846e-02   1.6751576e-02
  -3.2196045e-02   1.6672841e-02
  -3.0136108e-02   1.6594273e-02
  -2.9449463e-02   1.6515917e-02
  -2.7847290e-02   1.6437816e-02
  -2.8686523e-02   1.6360014e-02
  -3.4027100e-02   1.6282552e-02
  -3.8528442e-02   1.6205474e-02
  -3.5324097e-02   1.6128822e-02
  -2.3651123e-02   1.6052638e-02
  -9.9945068e-03   1.5976964e-02
  -3.8909912e-03   1.5901839e-02
  -7.5531006e-03   1.5827306e-02
  -2.1362305e-02   1.5753403e-02
  -3.9520264e-02   1.5680170e-02
  -5.4244995e-02   1.5607648e-02
  -5.7830811e-02   1.5535873e-02
  -4.9362183e-02   1.5464884e-02
  -3.4790039e-02   1.5394718e-02
  -2.7389526e-02   1.5325413e-02
  -2.2659302e-02   1.5257003e-02
  -1.7318726e-02   1.5189525e-02
  -1.8615723e-02   1.5123013e-02
  -2.2811890e-02   1.5057501e-02
  -2.5711060e-02   1.4993023e-02
  -2.7542114e-02   1.4929611e-02
  -2.6092529e-02   1.4867297e-02
  -2.4108887e-02   1.4806112e-02
  -2.0065308e-02   1.4746087e-02
  -1.3885498e-02   1.4687251e-02
  -9.2315674e-03   1.4629633e-02
  -8.8500977e-03   1.4573260e-02
  -9.0789795e-03   1.4518160e-02
  -7.4005127e-03   1.4464359e-02
  -1.9073486e-03   1.4411883e-02
   2.3651123e-03   1.4360755e-02
   7.6293945e-04   1.4310999e-02
  -8.5449219e-03   1.4262638e-02
  -2.0217896e-02   1.4215694e-02
  -3.2348633e-02   1.4170187e-02
  -3.2196045e-02   1.4126138e-02
  -2.4795532e-02   1.4083566e-02
  -2.3651123e-02   1.4042488e-02
  -2.3651123e-02   1.4002921e-02
  -2.3803711e-02   1.3964882e-02
  -2.4108887e-02   1.3928386e-02
  -2.4108887e-02   1.3893448e-02
  -2.4261475e-02   1.3860080e-02
  -2.4261475e-02   1.3828294e-02
  -2.4948120e-02   1.3798103e-02
  -2.3651123e-02   1.3769516e-02
  -2.1820068e-02   1.3742543e-02
  -2.1972656e-02   1.3717193e-02
  -1.8615723e-02   1.3693473e-02
  -1.6479492e-02   1.3671389e-02
  -1.7776489e-02   1.3650947e-02
  -1.8615723e-02   1.3632151e-02
  -1.8463135e-02   1.3615006e-02
  -2.0675659e-02   1.3599514e-02
  -2.9144287e-02   1.3585677e-02
  -3.2730103e-02   1.3573495e-02
  -2.9296875e-02   1.3562970e-02
  -2.6855469e-02   1.3554099e-02
  -2.1057129e-02   1.3546880e-02
  -1.5716553e-02   1.3541312e-02
  -1.4724731e-02   1.3537391e-02
  -1.6860962e-02   1.3535111e-02
  -1.5716553e-02   1.3534468e-02
  -1.4266968e-02   1.3535455e-02
  -1.1444092e-02   1.3538065e-02
  -9.6893311e-03   1.3542291e-02
  -8.3923340e-03   1.3548123e-02
  -8.0871582e-03   1.3555553e-02
  -9.5367432e-03   1.3564570e-02
  -7.5531006e-03   1.3575162e-02
  -7.4005127e-03   1.3587319e-02
  -1.2741089e-02   1.3601028e-02
  -2.7160645e-02   1.3616275e-02
  -3.6773682e-02   1.3633047e-02
  -3.8223267e-02   1.3651329e-02
  -2.6245117e-02   1.3671105e-02
  -1.3122559e-02   1.3692361e-02
  -1.2283325e-02   1.3715079e-02
  -1.3427734e-02   1.3739243e-02
  -9.8419189e-03   1.3764835e-02
  -7.7819824e-03   1.3791837e-02
  -8.6975098e-03   1.3820229e-02
  -1.2283325e-02   1.3849994e-02
  -1.2969971e-02   1.3881111e-02
  -1.4572144e-02   1.3913559e-02
  -1.4572144e-02   1.3947319e-02
  -1.3275146e-02   1.3982370e-02
  -1.4419556e-02   1.4018689e-02
  -1.8310547e-02   1.4056255e-02
  -1.9454956e-02   1.4095047e-02
  -1.4724731e-02   1.4135041e-02
  -8.6975098e-03   1.4176215e-02
  -5.7983398e-03   1.4218545e-02
  -7.2479248e-03   1.4262009e-02
  -1.7013550e-02   1.4306582e-02
  -2.5253296e-02   1.4352242e-02
  -2.4414062e-02   1.4398964e-02
  -2.1514893e-02   1.4446723e-02
  -1.7318726e-02   1.4495497e-02
  -1.3122559e-02   1.4545259e-02
  -1.3580322e-02   1.4595986e-02
  -2.1362305e-02   1.4647654e-02
  -3.8375854e-02   1.4700237e-02
  -6.1569214e-02   1.4753711e-02
  -7.9727173e-02   1.4808051e-02
  -8.0337524e-02   1.4863233e-02
  -6.2179565e-02   1.4919232e-02
  -3.9672852e-02   1.4976023e-02
  -2.7389526e-02   1.5033582e-02
  -2.1209717e-02   1.5091884e-02
  -8.5449219e-03   1.5150905e-02
   1.0986328e-02   1.5210621e-02
   2.5863647e-02   1.5271009e-02
   3.4332275e-02   1.5332043e-02
   3.9672852e-02   1.5393700e-02
   4.8370361e-02   1.5455957e-02
   5.1498413e-02   1.5518791e-02
   3.3950806e-02   1.5582178e-02
   1.1138916e-02   1.5646096e-02
  -6.6375732e-03   1.5710523e-02
  -1.3732910e-02   1.5775435e-02
  -7.7819824e-03   1.5840810e-02
   6.9427490e-03   1.5906629e-02
   2.6016235e-02   1.5972868e-02
   3.4790039e-02   1.6039507e-02
   3.6087036e-02   1.6106525e-02
   4.1885376e-02   1.6173902e-02
   4.7760010e-02   1.6241617e-02
   3.3493042e-02   1.6309653e-02
  -2.0904541e-02   1.6377988e-02
  -8.1329346e-02   1.6446604e-02
  -1.0169983e-01   1.6515483e-02
  -7.6293945e-02   1.6584607e-02
  -5.0048828e-02   1.6653957e-02
  -5.7144165e-02   1.6723518e-02
  -7.1716309e-02   1.6793271e-02
  -6.9198608e-02   1.6863201e-02
  -5.7525635e-02   1.6933292e-02
  -3.4027100e-02   1.7003528e-02
  -3.5095215e-03   1.7073893e-02
   2.1820068e-02   1.7144374e-02
   2.6702881e-02   1.7214956e-02
   1.4724731e-02   1.7285624e-02
  -2.7465820e-03   1.7356367e-02
  -1.4877319e-02   1.7427170e-02
  -2.2659302e-02   1.7498022e-02
  -2.7160645e-02   1.7568909e-02
  -2.7389526e-02   1.7639821e-02
  -2.6702881e-02   1.7710747e-02
  -2.6702881e-02   1.7781674e-02
  -3.2730103e-02   1.7852594e-02
  -3.9825439e-02   1.7923496e-02
  -4.2724609e-02   1.7994371e-02
  -3.6621094e-02   1.8065208e-02
  -3.2196045e-02   1.8136001e-02
  -2.3803711e-02   1.8206739e-02
  -1.0833740e-02   1.8277416e-02
  -4.8065186e-03   1.8348024e-02
   0.0000000e+00   1.8418555e-02
   4.5776367e-04   1.8489003e-02
  -8.3923340e-03   1.8559362e-02
  -1.8615723e-02   1.8629624e-02
  -1.8615723e-02   1.8699785e-02
  -1.0986328e-02   1.8769840e-02
  -8.5449219e-03   1.8839782e-02
  -1.3275146e-02   1.8909609e-02
  -1.7471313e-02   1.8979314e-02
  -1.3580322e-02   1.9048894e-02
  -5.1879883e-03   1.9118346e-02
  -1.6021729e-03   1.9187665e-02
  -2.0599365e-03   1.9256849e-02
  -7.4005127e-03   1.9325895e-02
  -1.5563965e-02   1.9394801e-02
  -2.2506714e-02   1.9463563e-02
  -2.4948120e-02   1.9532181e-02
  -1.3427734e-02   1.9600652e-02
   5.1116943e-03   1.9668974e-02
   6.7901611e-03   1.9737146e-02
  -7.2479248e-03   1.9805168e-02
  -1.8310547e-02   1.9873038e-02
  -1.2130737e-02   1.9940756e-02
   7.7056885e-03   2.0008320e-02
   2.2506714e-02   2.0075732e-02
   2.1362305e-02   2.0142990e-02
   1.0681152e-02   2.0210095e-02
  -1.2969971e-03   2.0277047e-02
  -1.2435913e-02   2.0343847e-02
  -2.0217896e-02   2.0410494e-02
  -2.2354126e-02   2.0476990e-02
  -2.1209717e-02   2.0543335e-02
  -2.6397705e-02   2.0609531e-02
  -3.7231445e-02   2.0675578e-02
  -4.7760010e-02   2.0741477e-02
  -4.9896240e-02   2.0807230e-02
  -5.1193237e-02   2.0872838e-02
  -5.0201416e-02   2.0938302e-02
  -5.1803589e-02   2.1003623e-02
  -5.6228638e-02   2.1068804e-02
  -4.5318604e-02   2.1133846e-02
  -1.3732910e-02   2.1198750e-02
   2.0370483e-02   2.1263519e-02
   2.7160645e-02   2.1328153e-02
   3.6621094e-03   2.1392654e-02
  -2.1667480e-02   2.1457025e-02
  -2.1820068e-02   2.1521267e-02
   6.1035156e-03   2.1585381e-02
   3.5400391e-02   2.1649369e-02
   4.9667358e-02   2.1713234e-02
   4.5013428e-02   2.1776976e-02
   3.2348633e-02   2.1840598e-02
   2.1362305e-02   2.1904100e-02
   1.1596680e-02   2.1967486e-02
   5.6457520e-03   2.2030755e-02
  -7.5531006e-03   2.2093910e-02
  -2.8152466e-02   2.2156952e-02
  -3.4179688e-02   2.2219882e-02
  -2.1362305e-02   2.2282702e-02
  -8.8500977e-03   2.2345413e-02
  -3.2043457e-03   2.2408016e-02
  -8.3923340e-03   2.2470512e-02
  -2.1667480e-02   2.2532901e-02
  -3.9672852e-02   2.2595186e-02
  -5.1803589e-02   2.2657366e-02
  -4.8904419e-02   2.2719442e-02
  -3.4790039e-02   2.2781415e-02
  -2.3956299e-02   2.2843285e-02
  -2.2811890e-02   2.2905051e-02
  -2.6245117e-02   2.2966716e-02
  -2.5863647e-02   2.3028278e-02
  -2.1820068e-02   2.3089736e-02
  -1.2283325e-02   2.3151092e-02
   1.2207031e-03   2.3212345e-02
   1.7623901e-02   2.3273493e-02
   2.6016235e-02   2.3334537e-02
   2.1362305e-02   2.3395474e-02
   2.0370483e-02   2.3456305e-02
   1.7623901e-02   2.3517029e-02
   7.6293945e-05   2.3577642e-02
  -2.0904541e-02   2.3638145e-02
  -3.1051636e-02   2.3698536e-02
  -2.7847290e-02   2.3758812e-02
  -1.9912720e-02   2.3818971e-02
  -1.3427734e-02   2.3879012e-02
  -9.8419189e-03   2.3938932e-02
  -9.2315674e-03   2.3998727e-02
  -1.7623901e-02   2.4058397e-02
  -2.7694702e-02   2.4117937e-02
  -2.2506714e-02   2.4177344e-02
   1.2207031e-03   2.4236615e-02
   2.3117065e-02   2.4295747e-02
   1.6937256e-02   2.4354736e-02
  -9.3841553e-03   2.4413577e-02
  -3.0746460e-02   2.4472268e-02
  -2.7008057e-02   2.4530803e-02
  -2.2659302e-02   2.4589178e-02
  -3.0441284e-02   2.4647388e-02
  -4.5166016e-02   2.4705429e-02
  -5.9585571e-02   2.4763296e-02
  -6.2332153e-02   2.4820983e-02
  -6.6070557e-02   2.4878484e-02
  -6.7672729e-02   2.4935795e-02
  -5.4931641e-02   2.4992910e-02
  -2.6245117e-02   2.5049822e-02
   8.3923340e-03   2.5106524e-02
   4.3182373e-02   2.5163012e-02
   7.4310303e-02   2.5219278e-02
   8.8882446e-02   2.5275316e-02
   7.8735352e-02   2.5331118e-02
   5.1956177e-02   2.5386677e-02
   2.7847290e-02   2.5441986e-02
   1.0147095e-02   2.5497038e-02
  -1.4724731e-02   2.5551825e-02
  -5.4550171e-02   2.5606338e-02
  -9.9105835e-02   2.5660570e-02
  -1.1924744e-01   2.5714513e-02
  -9.5214844e-02   2.5768158e-02
  -5.2185059e-02   2.5821496e-02
  -2.7389526e-02   2.5874520e-02
  -2.3117065e-02   2.5927219e-02
  -2.1209717e-02   2.5979584e-02
  -1.9454956e-02   2.6031608e-02
  -1.7929077e-02   2.6083279e-02
  -2.1209717e-02   2.6134589e-02
  -2.4108887e-02   2.6185527e-02
  -2.3117065e-02   2.6236084e-02
  -1.7623901e-02   2.6286250e-02
  -9.5367432e-03   2.6336015e-02
  -8.2397461e-03   2.6385368e-02
  -1.3427734e-02   2.6434299e-02
  -2.6855469e-02   2.6482797e-02
  -3.3493042e-02   2.6530852e-02
  -3.0288696e-02   2.6578452e-02
  -1.7013550e-02   2.6625588e-02
   6.1035156e-04   2.6672247e-02
   5.1116943e-03   2.6718420e-02
   5.2642822e-03   2.6764094e-02
   4.9591064e-03   2.6809258e-02
   9.1552734e-04   2.6853902e-02
  -2.5939941e-03   2.6898014e-02
  -6.4849854e-03   2.6941582e-02
  -1.1825562e-02   2.6984594e-02
  -1.7471313e-02   2.7027041e-02
  -2.2964478e-02   2.7068909e-02
  -3.1738281e-02   2.7110187e-02
  -3.7078857e-02   2.7150864e-02
  -3.3035278e-02   2.7190929e-02
  -1.8768311e-02   2.7230369e-02
  -6.9427490e-03   2.7269174e-02
  -9.2315674e-03   2.7307332e-02
  -1.8615723e-02   2.7344831e-02
  -2.1820068e-02   2.7381661e-02
  -1.4266968e-02   2.7417809e-02
  -5.4931641e-03   2.7453266e-02
  -4.6539307e-03   2.7488019e-02
  -2.1362305e-02   2.7522059e-02
  -3.7536621e-02   2.7555374e-02
  -4.0817261e-02   2.7587953e-02
  -3.8375854e-02   2.7619787e-02
  -3.5476685e-02   2.7650865e-02
  -4.1122437e-02   2.7681177e-02
  -4.6997070e-02   2.7710712e-02
  -3.7384033e-02   2.7739463e-02
  -1.4724731e-02   2.7767418e-02
   5.6457520e-03   2.7794569e-02
   1.6784668e-02   2.7820908e-02
   2.8305054e-02   2.7846425e-02
   3.4790039e-02   2.7871112e-02
   3.1356812e-02   2.7894961e-02
   2.4261475e-02   2.7917965e-02
   2.7313232e-02   2.7940116e-02
   2.0828247e-02   2.7961408e-02
  -2.0523071e-02   2.7981833e-02
  -7.6141357e-02   2.8001387e-02
  -9.6054077e-02   2.8020062e-02
  -6.9351196e-02   2.8037853e-02
  -2.1057129e-02   2.8054757e-02
   1.4343262e-02   2.8070768e-02
   2.6855469e-02   2.8085882e-02
   3.9138794e-02   2.8100096e-02
   5.0964355e-02   2.8113407e-02
   5.0964355e-02   2.8125812e-02
   3.2348633e-02   2.8137310e-02
   2.0599365e-03   2.8147899e-02
  -2.5405884e-02   2.8157577e-02
  -4.3563843e-02   2.8166346e-02
  -5.0659180e-02   2.8174205e-02
  -4.8751831e-02   2.8181155e-02
  -4.2572021e-02   2.8187197e-02
  -3.7918091e-02   2.8192334e-02
  -2.9754639e-02   2.8196569e-02
  -1.5716553e-02   2.8199903e-02
   1.2207031e-03   2.8202343e-02
   1.7776489e-02   2.8203891e-02
   2.7160645e-02   2.8204554e-02
   1.5029907e-02   2.8204337e-02
  -1.3732910e-02   2.8203248e-02
  -4.2877197e-02   2.8201293e-02
  -5.8975220e-02   2.8198480e-02
  -5.0659180e-02   2.8194818e-02
  -2.9144287e-02   2.8190317e-02
  -1.4266968e-02   2.8184987e-02
  -1.3885498e-02   2.8178838e-02
  -2.0523071e-02   2.8171883e-02
  -2.5558472e-02   2.8164132e-02
  -2.6855469e-02   2.8155601e-02
  -3.3035278e-02   2.8146301e-02
  -4.7454834e-02   2.8136248e-02
  -5.9432983e-02   2.8125457e-02
  -5.5999756e-02   2.8113944e-02
  -4.4403076e-02   2.8101725e-02
  -3.2730103e-02   2.8088818e-02
  -2.3269653e-02   2.8075242e-02
  -6.7901611e-03   2.8061014e-02
   2.3956299e-02   2.8046154e-02
   5.1803589e-02   2.8030684e-02
   6.7520142e-02   2.8014623e-02
   6.3171387e-02   2.7997993e-02
   4.3716431e-02   2.7980817e-02
   3.6392212e-02   2.7963118e-02
   4.9362183e-02   2.7944919e-02
   7.9040527e-02   2.7926246e-02
   1.0643005e-01   2.7907122e-02
   1.0604858e-01   2.7887574e-02
   6.7367554e-02   2.7867629e-02
   1.5640259e-02   2.7847312e-02
  -2.0217896e-02   2.7826653e-02
  -3.6926270e-02   2.7805678e-02
  -6.3171387e-02   2.7784416e-02
  -1.0139465e-01   2.7762898e-02
  -1.1924744e-01   2.7741152e-02
  -1.0353088e-01   2.7719210e-02
  -7.4844360e-02   2.7697102e-02
  -6.1874390e-02   2.7674859e-02
  -5.8822632e-02   2.7652513e-02
  -4.3716431e-02   2.7630097e-02
  -7.5531006e-03   2.7607644e-02
   2.0980835e-02   2.7585186e-02
   6.1035156e-04   2.7562756e-02
  -4.6768188e-02   2.7540390e-02
  -7.5607300e-02   2.7518121e-02
  -5.3253174e-02   2.7495983e-02
   8.0871582e-03   2.7474011e-02
   6.5765381e-02   2.7452241e-02
   7.8887939e-02   2.7430707e-02
   3.0212402e-02   2.7409446e-02
  -5.3787231e-02   2.7388492e-02
  -1.1856079e-01   2.7367882e-02
  -1.2214661e-01   2.7347651e-02
  -8.3770752e-02   2.7327836e-02
  -4.7912598e-02   2.7308472e-02
  -3.9672852e-02   2.7289596e-02
  -5.0506592e-02   2.7271243e-02
  -6.2026978e-02   2.7253450e-02
  -6.5765381e-02   2.7236253e-02
  -6.1187744e-02   2.7219687e-02
  -4.0130615e-02   2.7203789e-02
  -1.0528564e-02   2.7188593e-02
   3.6621094e-03   2.7174137e-02
   2.3651123e-03   2.7160453e-02
  -2.4414062e-03   2.7147579e-02
  -6.1035156e-04   2.7135547e-02
   5.1116943e-03   2.7124394e-02
   1.3732910e-03   2.7114152e-02
  -1.2588501e-02   2.7104856e-02
  -2.8305054e-02   2.7096539e-02
  -3.7231445e-02   2.7089233e-02
  -3.6239624e-02   2.7082972e-02
  -2.9449463e-02   2.7077786e-02
  -1.6021729e-02   2.7073708e-02
  -4.6539307e-03   2.7070769e-02
   1.7547607e-03   2.7068998e-02
   5.4931641e-03   2.7068425e-02
   1.3427734e-02   2.7069080e-02
   2.2506714e-02   2.7070991e-02
   2.1972656e-02   2.7074185e-02
   2.0370483e-02   2.7078690e-02
   2.4261475e-02   2.7084533e-02
   2.6855469e-02   2.7091738e-02
   2.1820068e-02   2.7100330e-02
   8.0871582e-03   2.7110334e-02
  -9.0789795e-03   2.7121773e-02
  -1.9226074e-02   2.7134669e-02
  -1.6174316e-02   2.7149043e-02
  -6.7901611e-03   2.7164917e-02
   6.1035156e-04   2.7182310e-02
   1.7547607e-03   2.7201241e-02
   4.5776367e-04   2.7221727e-02
  -9.1552734e-04   2.7243787e-02
   1.2207031e-03   2.7267435e-02
   4.8065186e-03   2.7292687e-02
   7.5531006e-03   2.7319558e-02
   5.2642822e-03   2.7348059e-02
  -5.3405762e-03   2.7378204e-02
  -1.5029907e-02   2.7410002e-02
  -2.2659302e-02   2.7443465e-02
  -1.5335083e-02   2.7478602e-02
   7.6293945e-04   2.7515420e-02
   3.3569336e-03   2.7553926e-02
  -4.6539307e-03   2.7594126e-02
  -1.7013550e-02   2.7636025e-02
  -2.3803711e-02   2.7679628e-02
  -2.3117065e-02   2.7724936e-02
  -1.7929077e-02   2.7771951e-02
  -1.3885498e-02   2.7820674e-02
  -1.6632080e-02   2.7871106e-02
  -2.9296875e-02   2.7923243e-02
  -4.1809082e-02   2.7977084e-02
  -3.5781860e-02   2.8032626e-02
  -1.4877319e-02   2.8089864e-02
  -3.0517578e-04   2.8148792e-02
  -2.5939941e-03   2.8209404e-02
  -9.2315674e-03   2.8271692e-02
  -1.3122559e-02   2.8335647e-02
  -1.7471313e-02   2.8401261e-02
  -3.3874512e-02   2.8468523e-02
  -4.5700073e-02   2.8537421e-02
  -4.6310425e-02   2.8607943e-02
  -4.4403076e-02   2.8680076e-02
  -2.7542114e-02   2.8753805e-02
  -1.9073486e-03   2.8829115e-02
   1.4038086e-02   2.8905990e-02
   4.8065186e-03   2.8984415e-02
  -1.5182495e-02   2.9064369e-02
  -2.1972656e-02   2.9145836e-02
  -1.2588501e-02   2.9228796e-02
   4.9591064e-03   2.9313229e-02
   2.7313232e-02   2.9399114e-02
   5.1345825e-02   2.9486429e-02
   5.6838989e-02   2.9575153e-02
   3.3798218e-02   2.9665261e-02
   4.8065186e-03   2.9756731e-02
  -6.2561035e-03   2.9849538e-02
  -1.7623901e-02   2.9943657e-02
  -5.4702759e-02   3.0039063e-02
  -1.0673523e-01   3.0135729e-02
  -1.1810303e-01   3.0233629e-02
  -8.1024170e-02   3.0332737e-02
  -4.3869019e-02   3.0433023e-02
  -2.5863647e-02   3.0534460e-02
  -2.6855469e-02   3.0637020e-02
  -3.4790039e-02   3.0740673e-02
  -3.3874512e-02   3.0845390e-02
  -1.7929077e-02   3.0951142e-02
   2.5177002e-03   3.1057899e-02
   5.9509277e-03   3.1165630e-02
  -3.5095215e-03   3.1274304e-02
  -4.8065186e-03   3.1383892e-02
   8.3923340e-03   3.1494361e-02
   1.4038086e-02   3.1605681e-02
  -6.7901611e-03   3.1717821e-02
  -4.7760010e-02   3.1830748e-02
  -8.3618164e-02   3.1944432e-02
  -9.7808838e-02   3.2058840e-02
  -9.4604492e-02   3.2173942e-02
  -8.6669922e-02   3.2289705e-02
  -7.3699951e-02   3.2406097e-02
  -5.3787231e-02   3.2523088e-02
  -3.2348633e-02   3.2640645e-02
   2.6702881e-03   3.2758738e-02
   4.6463013e-02   3.2877334e-02
   8.0032349e-02   3.2996403e-02
   9.1018677e-02   3.3115914e-02
   7.7743530e-02   3.3235835e-02
   5.3710938e-02   3.3356137e-02
   2.4108887e-02   3.3476789e-02
  -6.1035156e-04   3.3597762e-02
  -7.5531006e-03   3.3719024e-02
   1.3732910e-02   3.3840548e-02
   4.7912598e-02   3.3962304e-02
   5.4702759e-02   3.4084263e-02
   2.2506714e-02   3.4206397e-02
  -2.1514893e-02   3.4328679e-02
  -4.2419434e-02   3.4451082e-02
  -3.9978027e-02   3.4573577e-02
  -3.6087036e-02   3.4696139e-02
  -3.2730103e-02   3.4818743e-02
  -3.3035278e-02   3.4941362e-02
  -3.4942627e-02   3.5063972e-02
  -2.5863647e-02   3.5186548e-02
  -6.9427490e-03   3.5309068e-02
   2.2125244e-03   3.5431508e-02
  -3.5095215e-03   3.5553846e-02
  -1.9454956e-02   3.5676060e-02
  -4.0512085e-02   3.5798129e-02
  -5.8288574e-02   3.5920032e-02
  -6.4010620e-02   3.6041750e-02
  -4.7149658e-02   3.6163265e-02
  -1.7166138e-02   3.6284556e-02
   7.0953369e-03   3.6405608e-02
   1.6174316e-02   3.6526402e-02
   1.8234253e-02   3.6646924e-02
   3.0441284e-02   3.6767158e-02
   5.1116943e-02   3.6887089e-02
   7.3699951e-02   3.7006703e-02
   8.1787109e-02   3.7125988e-02
   8.3541870e-02   3.7244932e-02
   7.5302124e-02   3.7363522e-02
   3.3950806e-02   3.7481749e-02
  -2.8457642e-02   3.7599604e-02
  -7.8582764e-02   3.7717076e-02
  -9.0713501e-02   3.7834158e-02
  -8.7127686e-02   3.7950843e-02
  -9.9792480e-02   3.8067124e-02
  -1.3053894e-01   3.8182996e-02
  -1.3595581e-01   3.8298455e-02
  -8.9874268e-02   3.8413496e-02
  -1.6021729e-02   3.8528116e-02
   2.9907227e-02   3.8642314e-02
   1.7776489e-02   3.8756088e-02
  -2.0065308e-02   3.8869438e-02
  -4.1427612e-02   3.8982363e-02
  -4.2724609e-02   3.9094867e-02
  -4.6310425e-02   3.9206949e-02
  -6.2179565e-02   3.9318614e-02
  -7.8735352e-02   3.9429865e-02
  -7.5149536e-02   3.9540707e-02
  -5.9432983e-02   3.9651145e-02
  -5.5999756e-02   3.9761186e-02
  -6.3171387e-02   3.9870836e-02
  -7.2555542e-02   3.9980103e-02
  -6.6223145e-02   4.0088997e-02
  -3.2577515e-02   4.0197526e-02
   1.4495850e-02   4.0305700e-02
   4.5471191e-02   4.0413531e-02
   4.5776367e-02   4.0521030e-02
   3.2806396e-02   4.0628210e-02
   3.5781860e-02   4.0735084e-02
   6.2789917e-02   4.0841667e-02
   8.1787109e-02   4.0947971e-02
   5.7449341e-02   4.1054014e-02
   3.8146973e-03   4.1159811e-02
  -2.6702881e-02   4.1265379e-02
  -3.3569336e-03   4.1370735e-02
   4.1275024e-02   4.1475897e-02
   4.8217773e-02   4.1580884e-02
   1.4724731e-02   4.1685715e-02
  -2.4948120e-02   4.1790411e-02
  -4.9362183e-02   4.1894991e-02
  -5.5999756e-02   4.1999478e-02
  -5.5541992e-02   4.2103891e-02
  -5.2642822e-02   4.2208255e-02
  -4.5700073e-02   4.2312590e-02
  -4.0130615e-02   4.2416922e-02
  -4.3563843e-02   4.2521273e-02
  -5.2185059e-02   4.2625667e-02
  -4.9591064e-02   4.2730130e-02
  -2.9296875e-02   4.2834687e-02
  -7.7819824e-03   4.2939362e-02
   1.9073486e-03   4.3044183e-02
   4.8065186e-03   4.3149175e-02
   1.2893677e-02   4.3254365e-02
   2.6016235e-02   4.3359780e-02
   4.0130615e-02   4.3465448e-02
   4.6768188e-02   4.3571397e-02
   4.2877197e-02   4.3677654e-02
   4.3563843e-02   4.3784247e-02
   5.0506592e-02   4.3891206e-02
   3.5934448e-02   4.3998560e-02
   2.3651123e-03   4.4106336e-02
  -3.5781860e-02   4.4214565e-02
  -5.2185059e-02   4.4323276e-02
  -4.1427612e-02   4.4432499e-02
  -2.4795532e-02   4.4542263e-02
  -1.9912720e-02   4.4652598e-02
  -3.1890869e-02   4.4763533e-02
  -4.9362183e-02   4.4875100e-02
  -7.2555542e-02   4.4987328e-02
  -1.0124207e-01   4.5100247e-02
  -1.1634827e-01   4.5213888e-02
  -9.0408325e-02   4.5328280e-02
  -3.1433105e-02   4.5443454e-02
   2.1514893e-02   4.5559439e-02
   4.1122437e-02   4.5676266e-02
   3.9138794e-02   4.5793965e-02
   3.4484863e-02   4.5912565e-02
   4.1427612e-02   4.6032096e-02
   5.5236816e-02   4.6152588e-02
   6.0729980e-02   4.6274070e-02
   5.6304932e-02   4.6396571e-02
   3.5629272e-02   4.6520120e-02
  -4.1961670e-03   4.6644746e-02
  -4.5471191e-02   4.6770477e-02
  -6.8054199e-02   4.6897342e-02
  -7.1105957e-02   4.7025368e-02
  -6.4773560e-02   4.7154583e-02
  -5.4244995e-02   4.7285014e-02
  -3.3035278e-02   4.7416689e-02
   1.7547607e-03   4.7549633e-02
   3.9291382e-02   4.7683873e-02
   6.9427490e-02   4.7819434e-02
   9.1018677e-02   4.7956342e-02
   9.9945068e-02   4.8094622e-02
   8.3541870e-02   4.8234297e-02
   4.3563843e-02   4.8375393e-02
  -1.1672974e-02   4.8517931e-02
  -5.5389404e-02   4.8661936e-02
  -7.5988770e-02   4.8807428e-02
  -7.7590942e-02   4.8954430e-02
  -6.2484741e-02   4.9102963e-02
  -6.5917969e-02   4.9253047e-02
  -1.0643005e-01   4.9404702e-02
  -1.6326904e-01   4.9557948e-02
  -1.9279480e-01   4.9712802e-02
  -1.7333984e-01   4.9869283e-02
  -1.2535095e-01   5.0027407e-02
  -7.8048706e-02   5.0187192e-02
  -4.5013428e-02   5.0348652e-02
  -1.6021729e-02   5.0511802e-02
   1.3580322e-02   5.0676658e-02
   3.4103394e-02   5.0843232e-02
   3.5629272e-02   5.1011536e-02
   9.3841553e-03   5.1181583e-02
  -3.5324097e-02   5.1353383e-02
  -7.4691772e-02   5.1526946e-02
  -9.1323853e-02   5.1702282e-02
  -7.9727173e-02   5.1879399e-02
  -5.5541992e-02   5.2058304e-02
  -2.7160645e-02   5.2239004e-02
   9.8419189e-03   5.2421505e-02
   3.5095215e-02   5.2605812e-02
   2.9144287e-02   5.2791927e-02
   1.0986328e-02   5.2979855e-02
   1.0833740e-02   5.3169596e-02
   1.8234253e-02   5.3361152e-02
   5.4931641e-03   5.3554524e-02
  -2.9144287e-02   5.3749709e-02
  -5.5999756e-02   5.3946706e-02
  -4.0283203e-02   5.4145512e-02
   2.4261475e-02   5.4346124e-02
   1.0513306e-01   5.4548535e-02
   1.4579773e-01   5.4752741e-02
   1.2588501e-01   5.4958734e-02
   8.0490112e-02   5.5166506e-02
   5.8593750e-02   5.5376049e-02
   5.2261353e-02   5.5587352e-02
   3.5095215e-02   5.5800404e-02
  -9.2315674e-03   5.6015193e-02
  -6.0577393e-02   5.6231707e-02
  -7.3852539e-02   5.6449931e-02
  -5.0659180e-02   5.6669849e-02
  -1.8768311e-02   5.6891447e-02
  -9.1552734e-04   5.7114706e-02
   2.6702881e-03   5.7339609e-02
  -8.8500977e-03   5.7566137e-02
  -3.7231445e-02   5.7794268e-02
  -6.8206787e-02   5.8023983e-02
  -8.5372925e-02   5.8255258e-02
  -8.3084106e-02   5.8488071e-02
  -6.3629150e-02   5.8722398e-02
  -2.4108887e-02   5.8958214e-02
   3.1738281e-02   5.9195491e-02
   8.0642700e-02   5.9434204e-02
   9.7198486e-02   5.9674325e-02
   7.1716309e-02   5.9915824e-02
   2.0599365e-03   6.0158671e-02
  -8.3770752e-02   6.0402837e-02
  -1.3412476e-01   6.0648288e-02
  -1.1550903e-01   6.0894993e-02
  -3.5934448e-02   6.1142918e-02
   4.6005249e-02   6.1392029e-02
   7.4462891e-02   6.1642290e-02
   5.6533813e-02   6.1893666e-02
   1.7623901e-02   6.2146119e-02
  -1.6479492e-02   6.2399613e-02
  -3.6926270e-02   6.2654107e-02
  -4.5013428e-02   6.2909565e-02
  -5.0201416e-02   6.3165944e-02
  -5.5999756e-02   6.3423204e-02
  -6.2179565e-02   6.3681305e-02
  -6.4010620e-02   6.3940203e-02
  -6.0119629e-02   6.4199856e-02
  -4.8446655e-02   6.4460221e-02
  -3.8833618e-02   6.4721252e-02
  -3.4179688e-02   6.4982905e-02
  -2.9449463e-02   6.5245135e-02
   7.4005127e-03   6.5507896e-02
   7.0419312e-02   6.5771140e-02
   1.1970520e-01   6.6034821e-02
   1.2695312e-01   6.6298890e-02
   9.0026855e-02   6.6563300e-02
   2.6550293e-02   6.6828001e-02
  -4.9896240e-02   6.7092945e-02
  -1.2039185e-01   6.7358081e-02
  -1.6326904e-01   6.7623359e-02
  -1.6716003e-01   6.7888730e-02
  -1.3526917e-01   6.8154140e-02
  -8.0032349e-02   6.8419540e-02
  -1.7013550e-02   6.8684878e-02
   3.4484863e-02   6.8950100e-02
   6.0882568e-02   6.9215156e-02
   6.9427490e-02   6.9479992e-02
   7.0114136e-02   6.9744555e-02
   6.7977905e-02   7.0008793e-02
   6.0195923e-02   7.0272651e-02
   4.0130615e-02   7.0536075e-02
   2.2125244e-03   7.0799013e-02
  -6.4620972e-02   7.1061410e-02
  -1.5129089e-01   7.1323212e-02
  -2.0606995e-01   7.1584364e-02
  -1.8196106e-01   7.1844812e-02
  -8.4075928e-02   7.2104501e-02
   3.4942627e-02   7.2363378e-02
   1.0864258e-01   7.2621387e-02
   1.0414124e-01   7.2878473e-02
   4.8065186e-02   7.3134583e-02
  -6.7901611e-03   7.3389660e-02
  -2.6550293e-02   7.3643652e-02
  -2.0904541e-02   7.3896502e-02
  -1.8310547e-02   7.4148156e-02
  -1.5182495e-02   7.4398560e-02
   6.2561035e-03   7.4647660e-02
   2.4871826e-02   7.4895401e-02
  -1.4495850e-03   7.5141729e-02
  -7.0266724e-02   7.5386589e-02
  -1.4404297e-01   7.5629929e-02
  -1.7578125e-01   7.5871694e-02
  -1.6654968e-01   7.6111831e-02
  -1.3885498e-01   7.6350286e-02
  -9.4909668e-02   7.6587007e-02
  -3.2577515e-02   7.6821940e-02
   3.9825439e-02   7.7055034e-02
   9.1857910e-02   7.7286235e-02
   9.1323853e-02   7.7515491e-02
   3.7384033e-02   7.7742751e-02
  -3.0136108e-02   7.7967963e-02
  -7.0495605e-02   7.8191076e-02
  -7.1563721e-02   7.8412039e-02
  -6.1874390e-02   7.8630801e-02
  -5.4702759e-02   7.8847313e-02
  -3.5629272e-02   7.9061524e-02
   2.2811890e-02   7.9273385e-02
   1.1466980e-01   7.9482847e-02
   2.1385193e-01   7.9689860e-02
   2.8511047e-01   7.9894377e-02
   2.7931213e-01   8.0096350e-02
   1.7913818e-01   8.0295730e-02
   1.8768311e-02   8.0492472e-02
  -1.2275696e-01   8.0686527e-02
  -1.7593384e-01   8.0877850e-02
  -1.4793396e-01   8.1066394e-02
  -8.4533691e-02   8.1252115e-02
  -1.8768311e-02   8.1434967e-02
   4.6920776e-02   8.1614905e-02
   9.6054077e-02   8.1791886e-02
   9.7503662e-02   8.1965865e-02
   4.3182373e-02   8.2136800e-02
  -4.8751831e-02   8.2304648e-02
  -1.4984131e-01   8.2469365e-02
  -2.2392273e-01   8.2630912e-02
  -2.0805359e-01   8.2789245e-02
  -8.8958740e-02   8.2944325e-02
   5.9127808e-02   8.3096111e-02
   1.2603760e-01   8.3244562e-02
   8.3084106e-02   8.3389640e-02
  -3.0517578e-03   8.3531306e-02
  -4.2419434e-02   8.3669520e-02
  -8.0871582e-03   8.3804246e-02
   6.0195923e-02   8.3935445e-02
   1.1177063e-01   8.4063081e-02
   9.9563599e-02   8.4187117e-02
   2.6855469e-02   8.4307518e-02
  -5.1498413e-02   8.4424248e-02
  -9.0408325e-02   8.4537271e-02
  -8.8958740e-02   8.4646554e-02
  -7.4310303e-02   8.4752063e-02
  -6.2332153e-02   8.4853764e-02
  -5.7144165e-02   8.4951625e-02
  -6.3781738e-02   8.5045613e-02
  -8.1787109e-02   8.5135697e-02
  -9.4757080e-02   8.5221845e-02
  -8.8729858e-02   8.5304026e-02
  -7.2708130e-02   8.5382212e-02
  -5.1956177e-02   8.5456371e-02
  -2.2811890e-02   8.5526475e-02
  -5.4931641e-03   8.5592496e-02
  -2.9754639e-02   8.5654406e-02
  -9.3307495e-02   8.5712178e-02
  -1.5113831e-01   8.5765784e-02
  -1.5441895e-01   8.5815199e-02
  -1.2557983e-01   8.5860397e-02
  -1.1795044e-01   8.5901354e-02
  -1.3237000e-01   8.5938045e-02
  -1.2893677e-01   8.5970446e-02
  -7.7743530e-02   8.5998534e-02
   1.3732910e-02   8.6022288e-02
   1.0154724e-01   8.6041685e-02
   1.3916016e-01   8.6056703e-02
   1.0932922e-01   8.6067323e-02
   4.7912598e-02   8.6073525e-02
   1.4190674e-02   8.6075290e-02
   3.0899048e-02   8.6072598e-02
   7.8201294e-02   8.6065432e-02
   1.2893677e-01   8.6053776e-02
   1.7044067e-01   8.6037612e-02
   1.8013000e-01   8.6016925e-02
   1.3862610e-01   8.5991700e-02
   5.1956177e-02   8.5961922e-02
  -4.8294067e-02   8.5927578e-02
  -1.1390686e-01   8.5888656e-02
  -1.3595581e-01   8.5845142e-02
  -1.3168335e-01   8.5797025e-02
  -1.1260986e-01   8.5744295e-02
  -8.1024170e-02   8.5686942e-02
  -4.0130615e-02   8.5624956e-02
  -3.2043457e-03   8.5558329e-02
   1.6632080e-02   8.5487054e-02
   1.8920898e-02   8.5411123e-02
   1.8234253e-02   8.5330531e-02
   3.6926270e-02   8.5245272e-02
   9.1857910e-02   8.5155341e-02
   1.7784119e-01   8.5060735e-02
   2.5337219e-01   8.4961450e-02
   2.6161194e-01   8.4857484e-02
   1.6860962e-01   8.4748836e-02
   4.5013428e-03   8.4635504e-02
  -1.5617371e-01   8.4517490e-02
  -2.7755737e-01   8.4394794e-02
  -3.5339355e-01   8.4267416e-02
  -3.3439636e-01   8.4135361e-02
  -1.8531799e-01   8.3998630e-02
   2.2964478e-02   8.3857228e-02
   1.4526367e-01   8.3711160e-02
   1.2695312e-01   8.3560430e-02
   5.0811768e-02   8.3405045e-02
   1.8386841e-02   8.3245012e-02
   4.4479370e-02   8.3080339e-02
   6.7367554e-02   8.2911034e-02
   3.1509399e-02   8.2737106e-02
  -5.0659180e-02   8.2558565e-02
  -1.1146545e-01   8.2375422e-02
  -1.0223389e-01   8.2187688e-02
  -4.6310425e-02   8.1995375e-02
  -1.0681152e-02   8.1798496e-02
  -1.6860962e-02   8.1597065e-02
  -4.4708252e-02   8.1391095e-02
  -5.5999756e-02   8.1180602e-02
  -4.6768188e-02   8.0965601e-02
  -2.0217896e-02   8.0746109e-02
   3.1356812e-02   8.0522142e-02
   9.0332031e-02   8.0293718e-02
   1.2458801e-01   8.0060855e-02
   1.2748718e-01   7.9823572e-02
   1.2290955e-01   7.9581889e-02
   1.1726379e-01   7.9335826e-02
   9.0560913e-02   7.9085404e-02
   1.8386841e-02   7.8830644e-02
  -7.2402954e-02   7.8571568e-02
  -1.1970520e-01   7.8308199e-02
  -1.0414124e-01   7.8040560e-02
  -7.2402954e-02   7.7768675e-02
  -6.6375732e-02   7.7492570e-02
  -7.7743530e-02   7.7212267e-02
  -8.0184937e-02   7.6927795e-02
  -7.9498291e-02   7.6639178e-02
  -1.0192871e-01   7.6346443e-02
  -1.2573242e-01   7.6049619e-02
  -1.2405396e-01   7.5748733e-02
  -1.0124207e-01   7.5443813e-02
  -7.9498291e-02   7.5134889e-02
  -9.1705322e-02   7.4821991e-02
  -1.2893677e-01   7.4505148e-02
  -1.4739990e-01   7.4184392e-02
  -1.3542175e-01   7.3859754e-02
  -1.2893677e-01   7.3531266e-02
  -1.4015198e-01   7.3198961e-02
  -1.3122559e-01   7.2862871e-02
  -8.1939697e-02   7.2523031e-02
  -3.1051636e-02   7.2179475e-02
  -3.0593872e-02   7.1832236e-02
  -6.7214966e-02   7.1481352e-02
  -7.7133179e-02   7.1126857e-02
  -1.8768311e-02   7.0768789e-02
   9.5748901e-02   7.0407184e-02
   2.1095276e-01   7.0042080e-02
   2.6664734e-01   6.9673515e-02
   2.3719788e-01   6.9301528e-02
   1.3343811e-01   6.8926159e-02
   1.8768311e-02   6.8547447e-02
  -2.8305054e-02   6.8165433e-02
  -6.1035156e-03   6.7780159e-02
   2.3269653e-02   6.7391666e-02
   2.7160645e-02   6.6999996e-02
   1.8768311e-02   6.6605192e-02
   2.7694702e-02   6.6207299e-02
   5.6152344e-02   6.5806360e-02
   7.8048706e-02   6.5402420e-02
   7.7896118e-02   6.4995525e-02
   6.1187744e-02   6.4585721e-02
   4.2266846e-02   6.4173054e-02
   2.2811890e-02   6.3757573e-02
   5.7983398e-03   6.3339324e-02
  -1.7547607e-03   6.2918357e-02
  -2.7465820e-03   6.2494721e-02
   4.8065186e-03   6.2068467e-02
   2.0065308e-02   6.1639643e-02
   4.2114258e-02   6.1208303e-02
   4.1580200e-02   6.0774498e-02
  -5.6457520e-03   6.0338280e-02
  -6.8206787e-02   5.9899703e-02
  -9.8495483e-02   5.9458821e-02
  -8.9569092e-02   5.9015689e-02
  -8.0795288e-02   5.8570361e-02
  -8.2092285e-02   5.8122893e-02
  -3.6239624e-02   5.7673343e-02
   9.3765259e-02   5.7221767e-02
   2.3086548e-01   5.6768223e-02
   2.4757385e-01   5.6312771e-02
   9.5520020e-02   5.5855468e-02
  -1.3412476e-01   5.5396375e-02
  -2.8289795e-01   5.4935553e-02
  -2.6893616e-01   5.4473063e-02
  -1.5144348e-01   5.4008966e-02
  -3.4790039e-02   5.3543324e-02
   3.7689209e-02   5.3076201e-02
   7.4615479e-02   5.2607661e-02
   8.8424683e-02   5.2137767e-02
   6.2637329e-02   5.1666584e-02
  -1.0147095e-02   5.1194178e-02
  -7.9345703e-02   5.0720615e-02
  -9.2010498e-02   5.0245960e-02
  -4.7760010e-02   4.9770281e-02
   1.4038086e-02   4.9293646e-02
   3.8833618e-02   4.8816122e-02
   4.9591064e-03   4.8337778e-02
  -6.1035156e-02   4.7858683e-02
  -9.3154907e-02   4.7378906e-02
  -4.7149658e-02   4.6898517e-02
   2.8610229e-02   4.6417587e-02
   4.6005249e-02   4.5936186e-02
  -2.4261475e-02   4.5454385e-02
  -1.2084961e-01   4.4972255e-02
  -1.6830444e-01   4.4489869e-02
  -1.4938354e-01   4.4007298e-02
  -1.0482788e-01   4.3524614e-02
  -8.5983276e-02   4.3041891e-02
  -8.2092285e-02   4.2559201e-02
  -7.5607300e-02   4.2076617e-02
  -6.1416626e-02   4.1594212e-02
  -4.2572021e-02   4.1112061e-02
  -2.4108887e-02   4.0630236e-02
  -8.3923340e-03   4.0148811e-02
  -1.7547607e-03   3.9667860e-02
  -1.5258789e-04   3.9187456e-02
   1.0986328e-02   3.8707675e-02
   2.6397705e-02   3.8228589e-02
   2.0370483e-02   3.7750272e-02
  -1.1291504e-02   3.7272799e-02
  -3.1051636e-02   3.6796243e-02
  -1.2435913e-02   3.6320678e-02
   2.6397705e-02   3.5846176e-02
   4.4708252e-02   3.5372813e-02
   3.2501221e-02   3.4900661e-02
   8.0871582e-03   3.4429792e-02
  -1.0833740e-02   3.3960280e-02
  -2.1820068e-02   3.3492197e-02
  -2.5100708e-02   3.3025615e-02
  -2.0065308e-02   3.2560606e-02
  -1.8463135e-02   3.2097241e-02
  -1.3427734e-02   3.1635592e-02
  -5.1879883e-03   3.1175729e-02
   7.0953369e-03   3.0717722e-02
   2.3803711e-02   3.0261641e-02
   3.6392212e-02   2.9807556e-02
   3.5400391e-02   2.9355534e-02
   2.0675659e-02   2.8905644e-02
   1.0299683e-02   2.8457954e-02
   1.6784668e-02   2.8012530e-02
   3.8528442e-02   2.7569438e-02
   5.9432983e-02   2.7128745e-02
   6.0195923e-02   2.6690515e-02
   3.8223267e-02   2.6254812e-02
   4.8065186e-03   2.5821699e-02
  -1.9226074e-02   2.5391240e-02
  -2.5711060e-02   2.4963496e-02
  -2.7542114e-02   2.4538527e-02
  -3.0288696e-02   2.4116395e-02
  -3.6087036e-02   2.3697158e-02
  -4.8599243e-02   2.3280874e-02
  -6.0577393e-02   2.2867602e-02
  -6.6757202e-02   2.2457397e-02
  -6.0424805e-02   2.2050315e-02
  -3.7384033e-02   2.1646411e-02
  -1.0147095e-02   2.1245737e-02
   4.5776367e-04   2.0848347e-02
  -5.3405762e-03   2.0454291e-02
  -1.2588501e-02   2.0063621e-02
  -1.5716553e-02   1.9676384e-02
  -1.3427734e-02   1.9292630e-02
  -9.9945068e-03   1.8912406e-02
  -6.7901611e-03   1.8535756e-02
  -7.5531006e-03   1.8162726e-02
  -9.9945068e-03   1.7793359e-02
  -1.0833740e-02   1.7427698e-02
  -1.1672974e-02   1.7065782e-02
  -1.8920898e-02   1.6707654e-02
  -2.0370483e-02   1.6353350e-02
  -1.4266968e-02   1.6002908e-02
  -1.1138916e-02   1.5656364e-02
  -1.0681152e-02   1.5313753e-02
  -7.5531006e-03   1.4975108e-02
  -5.9509277e-03   1.4640462e-02
  -5.1879883e-03   1.4309845e-02
  -5.3405762e-03   1.3983288e-02
  -5.9509277e-03   1.3660817e-02
  -7.2479248e-03   1.3342460e-02
  -9.9945068e-03   1.3028243e-02
  -8.6975098e-03   1.2718190e-02
  -6.4849854e-03   1.2412323e-02
  -4.9591064e-03   1.2110664e-02
  -4.6539307e-03   1.1813233e-02
  -5.1879883e-03   1.1520049e-02
  -5.9509277e-03   1.1231130e-02
  -7.7819824e-03   1.0946491e-02
  -6.2561035e-03   1.0666146e-02
  -1.2435913e-02   1.0390110e-02
  -1.4266968e-02   1.0118395e-02
  -9.8419189e-03   9.8510096e-03
  -8.8500977e-03   9.5879644e-03
  -8.2397461e-03   9.3292671e-03
  -8.2397461e-03   9.0749239e-03
  -7.5531006e-03   8.8249401e-03
  -8.0871582e-03   8.5793195e-03
  -1.2283325e-02   8.3380644e-03
  -1.3427734e-02   8.1011759e-03
  -1.3580322e-02   7.8686539e-03
  -1.1444092e-02   7.6404967e-03
  -1.1978149e-02   7.4167015e-03
  -1.4419556e-02   7.1972642e-03
  -1.6326904e-02   6.9821791e-03
  -1.6326904e-02   6.7714396e-03
  -1.3122559e-02   6.5650376e-03
  -1.2588501e-02   6.3629639e-03
  -1.3732910e-02   6.1652079e-03
  -1.4877319e-02   5.9717577e-03
  -2.1820068e-02   5.7826004e-03
  -2.2964478e-02   5.5977217e-03
  -1.8157959e-02   5.4171062e-03
  -1.4877319e-02   5.2407372e-03
  -1.2283325e-02   5.0685970e-03
  -1.0528564e-02   4.9006667e-03
  -1.0147095e-02   4.7369260e-03
  -1.0681152e-02   4.5773539e-03
  -9.9945068e-03   4.4219279e-03
  -7.7819824e-03   4.2706247e-03
  -6.1035156e-03   4.1234198e-03
  -6.9427490e-03   3.9802876e-03
  -9.5367432e-03   3.8412016e-03
  -1.1138916e-02   3.7061342e-03
  -1.0833740e-02   3.5750567e-03
  -1.2588501e-02   3.4479396e-03
  -1.6174316e-02   3.3247523e-03
  -1.8463135e-02   3.2054635e-03
  -1.9607544e-02   3.0900406e-03
  -2.0904541e-02   2.9784503e-03
  -2.8457642e-02   2.8706586e-03
  -3.2882690e-02   2.7666303e-03
  -2.8686523e-02   2.6663297e-03
  -2.4795532e-02   2.5697199e-03
  -1.7013550e-02   2.4767635e-03
  -1.3275146e-02   2.3874223e-03
  -1.4572144e-02   2.3016572e-03
  -1.5335083e-02   2.2194286e-03
  -1.6632080e-02   2.1406959e-03
  -1.6632080e-02   2.0654181e-03
  -1.6632080e-02   1.9935534e-03
  -1.4724731e-02   1.9250592e-03
  -1.4572144e-02   1.8598927e-03
  -1.6174316e-02   1.7980102e-03
  -1.6326904e-02   1.7393673e-03
  -1.5029907e-02   1.6839195e-03
  -1.4038086e-02   1.6316214e-03
  -1.4572144e-02   1.5824273e-03
  -1.4572144e-02   1.5362908e-03
  -1.4877319e-02   1.4931653e-03
  -2.1514893e-02   1.4530036e-03
  -2.2201538e-02   1.4157581e-03
  -1.7471313e-02   1.3813810e-03
  -1.7013550e-02   1.3498239e-03
  -1.8463135e-02   1.3210381e-03
  -1.9760132e-02   1.2949747e-03
  -2.0523071e-02   1.2715845e-03
  -1.8768311e-02   1.2508178e-03
  -1.4266968e-02   1.2326249e-03
  -1.2969971e-02   1.2169558e-03
  -1.3427734e-02   1.2037603e-03
  -1.5869141e-02   1.1929879e-03
  -1.7471313e-02   1.1845882e-03
  -1.8920898e-02   1.1785103e-03
  -1.9073486e-02   1.1747034e-03
  -1.6326904e-02   1.1731167e-03
  -1.2969971e-02   1.1736992e-03
  -8.8500977e-03   1.1763997e-03
  -7.5531006e-03   1.1811673e-03
  -7.2479248e-03   1.1879508e-03
  -1.4038086e-02   1.1966992e-03
  -1.5716553e-02   1.2073614e-03
  -1.0528564e-02   1.2198864e-03
  -1.0147095e-02   1.2342233e-03
  -9.5367432e-03   1.2503212e-03
  -7.5531006e-03   1.2681295e-03
  -5.1879883e-03   1.2875975e-03
  -4.1961670e-03   1.3086748e-03
  -5.1879883e-03   1.3313111e-03
  -6.6375732e-03   1.3554563e-03
  -8.2397461e-03   1.3810606e-03
  -9.2315674e-03   1.4080743e-03
  -7.5531006e-03   1.4364479e-03
  -6.7901611e-03   1.4661324e-03
  -8.5449219e-03   1.4970787e-03
  -9.3841553e-03   1.5292385e-03
  -8.0871582e-03   1.5625633e-03
  -7.7819824e-03   1.5970053e-03
  -1.0375977e-02   1.6325167e-03
  -1.3885498e-02   1.6690505e-03
  -2.2659302e-02   1.7065597e-03
  -2.4108887e-02   1.7449978e-03
  -1.9454956e-02   1.7843188e-03
  -1.7929077e-02   1.8244770e-03
  -1.8157959e-02   1.8654271e-03
  -2.1362305e-02   1.9071246e-03
  -2.3956299e-02   1.9495249e-03
  -2.6245117e-02   1.9925843e-03
  -2.9144287e-02   2.0362595e-03
  -2.9449463e-02   2.0805076e-03
  -2.7160645e-02   2.1252862e-03
  -2.4261475e-02   2.1705536e-03
  -2.3803711e-02   2.2162685e-03
  -2.2964478e-02   2.2623902e-03
  -2.2964478e-02   2.3088785e-03
  -2.3651123e-02   2.3556939e-03
  -2.4261475e-02   2.4027973e-03
  -2.2811890e-02   2.4501502e-03
  -2.1209717e-02   2.4977149e-03
  -1.9607544e-02   2.5454542e-03
  -2.2659302e-02   2.5933314e-03
  -2.3117065e-02   2.6413107e-03
  -1.9454956e-02   2.6893565e-03
  -1.7318726e-02   2.7374343e-03
  -1.4038086e-02   2.7855099e-03
  -1.1978149e-02   2.8335500e-03
  -1.4572144e-02   2.8815219e-03
  -1.5182495e-02   2.9293934e-03
  -1.5182495e-02   2.9771331e-03
  -1.3427734e-02   3.0247104e-03
  -1.3580322e-02   3.0720952e-03
  -1.6632080e-02   3.1192581e-03
  -2.1209717e-02   3.1661704e-03
  -2.5100708e-02   3.2128042e-03
  -2.7999878e-02   3.2591323e-03
  -2.9983521e-02   3.3051280e-03
  -2.8305054e-02   3.3507655e-03
  -2.3651123e-02   3.3960195e-03
  -1.9454956e-02   3.4408658e-03
  -1.7166138e-02   3.4852804e-03
  -2.2659302e-02   3.5292404e-03
  -2.1209717e-02   3.5727235e-03
  -1.3580322e-02   3.6157080e-03
  -1.0375977e-02   3.6581730e-03
  -8.8500977e-03   3.7000984e-03
  -8.8500977e-03   3.7414646e-03
  -7.9345703e-03   3.7822529e-03
  -6.7901611e-03   3.8224452e-03
  -6.4849854e-03   3.8620242e-03
  -7.9345703e-03   3.9009731e-03
  -1.0147095e-02   3.9392761e-03
  -1.1978149e-02   3.9769179e-03
  -1.5716553e-02   4.0138838e-03
  -2.0065308e-02   4.0501601e-03
  -2.3956299e-02   4.0857336e-03
  -2.5100708e-02   4.1205917e-03
  -2.6397705e-02   4.1547226e-03
  -2.8152466e-02   4.1881152e-03
  -2.8152466e-02   4.2207589e-03
  -2.5863647e-02   4.2526440e-03
  -2.8839111e-02   4.2837613e-03
  -2.3956299e-02   4.3141023e-03
  -1.0986328e-02   4.3436590e-03
  -2.4414062e-03   4.3724243e-03
   1.0681152e-03   4.4003916e-03
   1.6021729e-03   4.4275549e-03
  -3.0517578e-04   4.4539087e-03
  -2.7465820e-03   4.4794484e-03
  -3.6621094e-03   4.5041698e-03
  -6.6375732e-03   4.5280694e-03
  -7.9345703e-03   4.5511441e-03
  -9.3841553e-03   4.5733915e-03
  -7.5531006e-03   4.5948099e-03
  -8.6975098e-03   4.6153978e-03
  -9.0789795e-03   4.6351547e-03
  -7.4005127e-03   4.6540802e-03
  -6.2561035e-03   4.6721748e-03
  -7.0953369e-03   4.6894392e-03
  -1.1825562e-02   4.7058748e-03
  -1.3885498e-02   4.7214835e-03
  -1.9454956e-02   4.7362677e-03
  -1.9226074e-02   4.7502301e-03
  -1.3275146e-02   4.7633741e-03
  -1.2741089e-02   4.7757033e-03
  -1.3427734e-02   4.7872221e-03
  -1.5869141e-02   4.7979349e-03
  -1.7776489e-02   4.8078470e-03
  -1.9912720e-02   4.8169637e-03
  -2.2811890e-02   4.8252909e-03
  -2.1667480e-02   4.8328349e-03
  -2.0065308e-02   4.8396023e-03
  -2.1209717e-02   4.8456002e-03
  -2.3498535e-02   4.8508359e-03
  -2.3498535e-02   4.8553171e-03
  -2.3117065e-02   4.8590519e-03
  -2.4108887e-02   4.8620487e-03
  -2.5405884e-02   4.8643162e-03
  -2.6245117e-02   4.8658633e-03
  -2.5100708e-02   4.8666993e-03
  -2.1972656e-02   4.8668338e-03
  -2.3498535e-02   4.8662767e-03
  -2.4948120e-02   4.8650380e-03
  -2.1057129e-02   4.8631280e-03
  -2.1057129e-02   4.8605573e-03
  -1.9760132e-02   4.8573368e-03
  -1.7471313e-02   4.8534773e-03
  -1.6021729e-02   4.8489901e-03
  -1.4877319e-02   4.8438866e-03
  -1.4724731e-02   4.8381783e-03
  -1.3122559e-02   4.8318770e-03
  -1.3122559e-02   4.8249946e-03
  -1.2130737e-02   4.8175431e-03
  -1.3275146e-02   4.8095346e-03
  -1.4572144e-02   4.8009816e-03
  -1.5869141e-02   4.7918963e-03
  -1.7776489e-02   4.7822914e-03
  -2.0523071e-02   4.7721794e-03
  -2.1362305e-02   4.7615730e-03
  -2.1667480e-02   4.7504850e-03
  -2.1667480e-02   4.7389282e-03
  -2.7008057e-02   4.7269155e-03
  -2.8305054e-02   4.7144599e-03
  -2.6245117e-02   4.7015743e-03
  -2.6245117e-02   4.6882718e-03
  -2.3956299e-02   4.6745653e-03
  -1.9760132e-02   4.6604679e-03
  -1.9073486e-02   4.6459926e-03
  -2.0370483e-02   4.6311524e-03
  -1.9912720e-02   4.6159603e-03
  -2.0370483e-02   4.6004294e-03
  -2.1972656e-02   4.5845724e-03
  -2.3651123e-02   4.5684025e-03
  -2.3651123e-02   4.5519323e-03
  -2.1057129e-02   4.5351747e-03
  -1.9073486e-02   4.5181424e-03
  -1.5716553e-02   4.5008481e-03
  -1.5716553e-02   4.4833044e-03
  -1.4419556e-02   4.4655238e-03
  -1.4266968e-02   4.4475186e-03
  -1.3885498e-02   4.4293011e-03
  -1.8920898e-02   4.4108837e-03
  -1.9454956e-02   4.3922783e-03
  -1.4266968e-02   4.3734969e-03
  -1.3122559e-02   4.3545515e-03
  -1.3122559e-02   4.3354536e-03
  -1.4419556e-02   4.3162149e-03
  -1.5716553e-02   4.2968469e-03
  -1.7929077e-02   4.2773608e-03
  -1.6326904e-02   4.2577679e-03
  -1.2588501e-02   4.2380790e-03
  -1.1825562e-02   4.2183051e-03
  -1.3427734e-02   4.1984568e-03
  -1.6174316e-02   4.1785447e-03
  -1.7776489e-02   4.1585791e-03
  -1.6632080e-02   4.1385702e-03
  -1.5335083e-02   4.1185280e-03
  -1.2969971e-02   4.0984623e-03
  -1.3732910e-02   4.0783827e-03
  -1.3580322e-02   4.0582987e-03
  -1.3580322e-02   4.0382196e-03
  -1.7776489e-02   4.0181544e-03
  -2.2659302e-02   3.9981120e-03
  -2.2659302e-02   3.9781011e-03
  -2.3117065e-02   3.9581302e-03
  -2.0370483e-02   3.9382076e-03
  -1.6021729e-02   3.9183414e-03
  -1.3122559e-02   3.8985394e-03
  -1.1978149e-02   3.8788093e-03
  -1.0528564e-02   3.8591587e-03
  -1.0528564e-02   3.8395948e-03
  -8.2397461e-03   3.8201247e-03
  -7.4005127e-03   3.8007552e-03
  -7.2479248e-03   3.7814930e-03
  -8.2397461e-03   3.7623446e-03
  -7.4005127e-03   3.7433162e-03
  -5.4931641e-03   3.7244139e-03
  -3.3569336e-03   3.7056434e-03
  -3.0517578e-03   3.6870105e-03
  -5.7983398e-03   3.6685205e-03
  -6.4849854e-03   3.6501787e-03
  -1.0147095e-02   3.6319901e-03
  -8.5449219e-03   3.6139595e-03
  -4.1961670e-03   3.5960915e-03
  -6.1035156e-03   3.5783906e-03
  -6.1035156e-03   3.5608609e-03
  -9.3841553e-03   3.5435066e-03
  -1.2969971e-02   3.5263313e-03
  -1.3732910e-02   3.5093388e-03
  -1.0833740e-02   3.4925324e-03
  -1.0375977e-02   3.4759155e-03
  -1.3732910e-02   3.4594911e-03
  -1.2435913e-02   3.4432620e-03
  -9.0789795e-03   3.4272310e-03
  -5.9509277e-03   3.4114005e-03
  -5.7983398e-03   3.3957730e-03
  -6.6375732e-03   3.3803505e-03
  -7.4005127e-03   3.3651350e-03
  -6.9427490e-03   3.3501284e-03
  -7.5531006e-03   3.3353322e-03
  -1.1672974e-02   3.3207480e-03
  -2.1514893e-02   3.3063771e-03
  -2.3269653e-02   3.2922206e-03
  -1.4877319e-02   3.2782795e-03
  -1.4038086e-02   3.2645547e-03
  -1.6860962e-02   3.2510467e-03
  -2.1820068e-02   3.2377563e-03
  -2.4108887e-02   3.2246837e-03
  -2.4108887e-02   3.2118293e-03
  -2.1820068e-02   3.1991931e-03
  -1.9912720e-02   3.1867751e-03
  -1.9226074e-02   3.1745752e-03
  -1.7929077e-02   3.1625930e-03
  -1.5869141e-02   3.1508283e-03
  -1.2435913e-02   3.1392804e-03
  -9.9945068e-03   3.1279486e-03
  -7.7819824e-03   3.1168323e-03
  -7.5531006e-03   3.1059306e-03
  -1.1672974e-02   3.0952424e-03
  -1.6174316e-02   3.0847667e-03
  -1.5716553e-02   3.0745022e-03
  -1.8157959e-02   3.0644478e-03
  -1.6174316e-02   3.0546019e-03
  -9.3841553e-03   3.0449632e-03
  -7.9345703e-03   3.0355300e-03
  -6.9427490e-03   3.0263007e-03
  -1.0147095e-02   3.0172736e-03
  -1.2969971e-02   3.0084468e-03
  -1.5563965e-02   2.9998185e-03
  -1.5563965e-02   2.9913866e-03
  -1.4038086e-02   2.9831493e-03
  -1.1672974e-02   2.9751042e-03
  -9.0789795e-03   2.9672494e-03
  -9.0789795e-03   2.9595825e-03
  -8.5449219e-03   2.9521014e-03
  -1.0375977e-02   2.9448036e-03
  -1.2130737e-02   2.9376868e-03
  -1.3427734e-02   2.9307486e-03
  -1.4877319e-02   2.9239865e-03
  -1.4419556e-02   2.9173979e-03
  -1.3275146e-02   2.9109803e-03
  -1.8920898e-02   2.9047312e-03
  -2.2201538e-02   2.8986479e-03
  -1.9607544e-02   2.8927278e-03
  -1.8157959e-02   2.8869682e-03
  -1.7318726e-02   2.8813663e-03
  -1.9607544e-02   2.8759194e-03
  -2.0217896e-02   2.8706249e-03
  -1.7471313e-02   2.8654799e-03
  -1.2435913e-02   2.8604817e-03
  -8.6975098e-03   2.8556274e-03
  -5.7983398e-03   2.8509143e-03
  -6.6375732e-03   2.8463396e-03
  -8.3923340e-03   2.8419003e-03
  -9.3841553e-03   2.8375938e-03
  -7.2479248e-03   2.8334172e-03
  -4.5013428e-03   2.8293676e-03
  -4.0435791e-03   2.8254422e-03
  -6.1035156e-03   2.8216383e-03
  -8.6975098e-03   2.8179529e-03
  -1.1444092e-02   2.8143834e-03
  -1.6021729e-02   2.8109268e-03
  -1.9073486e-02   2.8075805e-03
  -1.7318726e-02   2.8043416e-03
  -1.7013550e-02   2.8012073e-03
  -1.3275146e-02   2.7981750e-03
  -1.0986328e-02   2.7952419e-03
  -1.1978149e-02   2.7924053e-03
  -1.1291504e-02   2.7896624e-03
  -1.0681152e-02   2.7870107e-03
  -9.2315674e-03   2.7844474e-03
  -8.8500977e-03   2.7819699e-03
  -1.1978149e-02   2.7795757e-03
  -1.3275146e-02   2.7772621e-03
  -1.0681152e-02   2.7750265e-03
  -6.2561035e-03   2.7728665e-03
  -4.3487549e-03   2.7707796e-03
  -5.3405762e-03   2.7687633e-03
  -6.6375732e-03   2.7668150e-03
  -9.8419189e-03   2.7649325e-03
  -1.1672974e-02   2.7631132e-03
  -1.7013550e-02   2.7613550e-03
  -1.6479492e-02   2.7596553e-03
  -1.1444092e-02   2.7580120e-03
  -1.2969971e-02   2.7564228e-03
  -1.2283325e-02   2.7548854e-03
  -1.0833740e-02   2.7533976e-03
  -7.7819824e-03   2.7519574e-03
  -8.3923340e-03   2.7505625e-03
  -8.6975098e-03   2.7492108e-03
  -9.3841553e-03   2.7479004e-03
  -1.0681152e-02   2.7466291e-03
  -1.1672974e-02   2.7453950e-03
  -1.2435913e-02   2.7441962e-03
  -1.3732910e-02   2.7430307e-03
  -1.5029907e-02   2.7418966e-03
  -1.6174316e-02   2.7407921e-03
  -1.6021729e-02   2.7397153e-03
  -1.4266968e-02   2.7386646e-03
  -1.0833740e-02   2.7376381e-03
  -1.0833740e-02   2.7366343e-03
  -1.6021729e-02   2.7356513e-03
  -1.6326904e-02   2.7346875e-03
  -9.9945068e-03   2.7337415e-03
  -9.5367432e-03   2.7328116e-03
  -1.0147095e-02   2.7318963e-03
  -1.1672974e-02   2.7309941e-03
  -1.4419556e-02   2.7301037e-03
  -1.5029907e-02   2.7292235e-03
  -1.6479492e-02   2.7283522e-03
  -1.5716553e-02   2.7274884e-03
  -1.6174316e-02   2.7266310e-03
  -1.6479492e-02   2.7257786e-03
  -1.7166138e-02   2.7249299e-03
  -1.6860962e-02   2.7240839e-03
  -1.6479492e-02   2.7232393e-03
  -1.4572144e-02   2.7223950e-03
  -1.1978149e-02   2.7215500e-03
  -1.0528564e-02   2.7207032e-03
  -1.1444092e-02   2.7198535e-03
  -9.8419189e-03   2.7190001e-03
  -1.4419556e-02   2.7181420e-03
  -1.5335083e-02   2.7172783e-03
  -1.0528564e-02   2.7164080e-03
  -1.2283325e-02   2.7155305e-03
  -1.3885498e-02   2.7146448e-03
  -1.5182495e-02   2.7137502e-03
  -1.4038086e-02   2.7128461e-03
  -1.3732910e-02   2.7119316e-03
  -1.4877319e-02   2.7110061e-03
  -1.4266968e-02   2.7100691e-03
  -1.4572144e-02   2.7091198e-03
  -1.2588501e-02   2.7081578e-03
  -1.1978149e-02   2.7071825e-03
  -9.3841553e-03   2.7061935e-03
  -8.6975098e-03   2.7051902e-03
  -9.2315674e-03   2.7041722e-03
  -9.2315674e-03   2.7031391e-03
  -8.8500977e-03   2.7020906e-03
  -1.0681152e-02   2.7010264e-03
  -1.3122559e-02   2.6999460e-03
  -2.0675659e-02   2.6988493e-03
  -2.2506714e-02   2.6977359e-03
  -1.9760132e-02   2.6966058e-03
  -1.8768311e-02   2.6954586e-03
  -1.9454956e-02   2.6942943e-03
  -1.7471313e-02   2.6931126e-03
  -1.5182495e-02   2.6919136e-03
  -1.0681152e-02   2.6906970e-03
  -9.9945068e-03   2.6894630e-03
  -1.1825562e-02   2.6882113e-03
  -1.3427734e-02   2.6869422e-03
  -1.2435913e-02   2.6856555e-03
  -1.2969971e-02   2.6843513e-03
  -1.0833740e-02   2.6830298e-03
  -8.6975098e-03   2.6816909e-03
  -6.7901611e-03   2.6803349e-03
  -6.6375732e-03   2.6789619e-03
  -5.3405762e-03   2.6775720e-03
  -7.5531006e-03   2.6761654e-03
  -9.2315674e-03   2.6747424e-03
  -1.5563965e-02   2.6733032e-03
  -1.6479492e-02   2.6718480e-03
  -1.4038086e-02   2.6703770e-03
  -1.4877319e-02   2.6688906e-03
  -1.2969971e-02   2.6673891e-03
  -1.2283325e-02   2.6658727e-03
  -1.2588501e-02   2.6643419e-03
  -1.1978149e-02   2.6627968e-03
  -1.1825562e-02   2.6612380e-03
  -1.1138916e-02   2.6596658e-03
  -1.1672974e-02   2.6580805e-03
  -1.3580322e-02   2.6564825e-03
  -1.7471313e-02   2.6548723e-03
  -2.1057129e-02   2.6532502e-03
  -2.1362305e-02   2.6516167e-03
  -2.3117065e-02   2.6499722e-03
  -2.6397705e-02   2.6483172e-03
  -2.7008057e-02   2.6466519e-03
  -2.5863647e-02   2.6449770e-03
  -2.2811890e-02   2.6432929e-03
  -2.5405884e-02   2.6415999e-03
  -2.5405884e-02   2.6398986e-03
  -2.0065308e-02   2.6381894e-03
  -1.9226074e-02   2.6364727e-03
  -1.8463135e-02   2.6347491e-03
  -1.7776489e-02   2.6330189e-03
  -1.8768311e-02   2.6312825e-03
  -1.8615723e-02   2.6295405e-03
  -1.6479492e-02   2.6277933e-03
  -1.4724731e-02   2.6260413e-03
  -1.6021729e-02   2.6242849e-03
  -1.8463135e-02   2.6225246e-03
  -1.9073486e-02   2.6207607e-03
  -1.7929077e-02   2.6189937e-03
  -1.6632080e-02   2.6172239e-03
  -1.3122559e-02   2.6154517e-03
  -1.1291504e-02   2.6136776e-03
  -1.2130737e-02   2.6119017e-03
  -1.3885498e-02   2.6101246e-03
  -1.4572144e-02   2.6083465e-03
  -1.9607544e-02   2.6065678e-03
  -2.1209717e-02   2.6047886e-03
  -1.4038086e-02   2.6030094e-03
  -1.2435913e-02   2.6012304e-03
  -9.8419189e-03   2.5994518e-03
  -8.5449219e-03   2.5976739e-03
  -8.3923340e-03   2.5958969e-03
  -9.2315674e-03   2.5941209e-03
  -1.1672974e-02   2.5923462e-03
  -1.2283325e-02   2.5905729e-03
  -1.2741089e-02   2.5888011e-03
  -1.1825562e-02   2.5870310e-03
  -1.0833740e-02   2.5852625e-03
  -1.0681152e-02   2.5834959e-03
  -1.1138916e-02   2.5817312e-03
  -1.1672974e-02   2.5799683e-03
  -9.2315674e-03   2.5782072e-03
  -9.6893311e-03   2.5764480e-03
  -1.1978149e-02   2.5746906e-03
  -1.3275146e-02   2.5729350e-03
  -1.8157959e-02   2.5711809e-03
  -1.7776489e-02   2.5694284e-03
  -1.2130737e-02   2.5676772e-03
  -1.2130737e-02   2.5659272e-03
  -1.2283325e-02   2.5641783e-03
  -1.2588501e-02   2.5624301e-03
  -1.3732910e-02   2.5606824e-03
  -1.4266968e-02   2.5589351e-03
  -1.3885498e-02   2.5571878e-03
  -1.4877319e-02   2.5554401e-03
  -1.5029907e-02   2.5536918e-03
  -1.6632080e-02   2.5519425e-03
  -1.6632080e-02   2.5501918e-03
  -1.4724731e-02   2.5484393e-03
  -1.3885498e-02   2.5466846e-03
  -1.2969971e-02   2.5449272e-03
  -1.3122559e-02   2.5431667e-03
  -1.1978149e-02   2.5414025e-03
  -1.1825562e-02   2.5396342e-03
  -1.2130737e-02   2.5378612e-03
  -1.8463135e-02   2.5360830e-03
  -1.9073486e-02   2.5342990e-03
  -1.3732910e-02   2.5325087e-03
  -1.2741089e-02   2.5307113e-03
  -1.2588501e-02   2.5289063e-03
  -1.5716553e-02   2.5270930e-03
  -1.9073486e-02   2.5252708e-03
  -1.8920898e-02   2.5234390e-03
  -1.4724731e-02   2.5215969e-03
  -1.1444092e-02   2.5197438e-03
  -1.0833740e-02   2.5178790e-03
  -1.1825562e-02   2.5160018e-03
  -1.2969971e-02   2.5141114e-03
  -1.4038086e-02   2.5122070e-03
  -1.3122559e-02   2.5102880e-03
  -1.2741089e-02   2.5083534e-03
  -1.4266968e-02   2.5064026e-03
  -1.7471313e-02   2.5044348e-03
  -1.7318726e-02   2.5024492e-03
  -1.6326904e-02   2.5004448e-03
  -1.8920898e-02   2.4984211e-03
  -1.6860962e-02   2.4963771e-03
  -8.5449219e-03   2.4943119e-03
  -6.1035156e-03   2.4922249e-03
  -6.6375732e-03   2.4901152e-03
  -6.1035156e-03   2.4879819e-03
  -7.4005127e-03   2.4858242e-03
  -8.0871582e-03   2.4836413e-03
  -1.0528564e-02   2.4814323e-03
  -1.1291504e-02   2.4791965e-03
  -1.0375977e-02   2.4769331e-03
  -1.0833740e-02   2.4746411e-03
  -1.2130737e-02   2.4723198e-03
  -1.3580322e-02   2.4699684e-03
  -1.3427734e-02   2.4675861e-03
  -1.3885498e-02   2.4651720e-03
  -1.5335083e-02   2.4627254e-03
  -1.7776489e-02   2.4602456e-03
  -1.8615723e-02   2.4577316e-03
  -1.6326904e-02   2.4551828e-03
  -1.9912720e-02   2.4525984e-03
  -2.0065308e-02   2.4499777e-03
  -1.6174316e-02   2.4473199e-03
  -1.6632080e-02   2.4446242e-03
  -1.9912720e-02   2.4418901e-03
  -2.0370483e-02   2.4391167e-03
  -1.7776489e-02   2.4363034e-03
  -1.4266968e-02   2.4334495e-03
  -1.0986328e-02   2.4305543e-03
  -8.8500977e-03   2.4276173e-03
  -7.2479248e-03   2.4246377e-03
  -8.5449219e-03   2.4216150e-03
  -1.2588501e-02   2.4185486e-03
  -1.4572144e-02   2.4154378e-03
  -1.7471313e-02   2.4122821e-03
  -1.7318726e-02   2.4090810e-03
  -1.5716553e-02   2.4058339e-03
  -1.3885498e-02   2.4025404e-03
  -1.3122559e-02   2.3991998e-03
  -1.4266968e-02   2.3958118e-03
  -2.0523071e-02   2.3923759e-03
  -2.2659302e-02   2.3888917e-03
  -1.7166138e-02   2.3853586e-03
  -1.5182495e-02   2.3817764e-03
  -1.4266968e-02   2.3781447e-03
  -1.5182495e-02   2.3744630e-03
  -1.3885498e-02   2.3707311e-03
  -1.0681152e-02   2.3669487e-03
  -1.0528564e-02   2.3631153e-03
  -1.1825562e-02   2.3592309e-03
  -1.3732910e-02   2.3552950e-03
  -1.5029907e-02   2.3513075e-03
  -1.7776489e-02   2.3472682e-03
  -1.8920898e-02   2.3431769e-03
  -1.7776489e-02   2.3390334e-03
  -1.7471313e-02   2.3348375e-03
  -1.5029907e-02   2.3305892e-03
  -1.3427734e-02   2.3262884e-03
  -1.2130737e-02   2.3219349e-03
  -1.1138916e-02   2.3175287e-03
  -1.6174316e-02   2.3130698e-03
  -1.6326904e-02   2.3085582e-03
  -1.1291504e-02   2.3039938e-03
  -1.1444092e-02   2.2993768e-03
  -1.0528564e-02   2.2947072e-03
  -1.1672974e-02   2.2899850e-03
  -1.1672974e-02   2.2852104e-03
  -1.2588501e-02   2.2803835e-03
  -1.0528564e-02   2.2755045e-03
  -9.9945068e-03   2.2705735e-03
  -1.1978149e-02   2.2655908e-03
  -1.2130737e-02   2.2605565e-03
  -1.3427734e-02   2.2554710e-03
  -1.4419556e-02   2.2503344e-03
  -1.4877319e-02   2.2451472e-03
  -1.5335083e-02   2.2399095e-03
  -1.4877319e-02   2.2346219e-03
  -1.4572144e-02   2.2292846e-03
  -1.3732910e-02   2.2238980e-03
  -1.4038086e-02   2.2184626e-03
  -1.8768311e-02   2.2129788e-03
  -1.8768311e-02   2.2074472e-03
  -1.1291504e-02   2.2018681e-03
  -1.1825562e-02   2.1962422e-03
  -1.3580322e-02   2.1905699e-03
  -1.4419556e-02   2.1848519e-03
  -1.4877319e-02   2.1790888e-03
  -1.4419556e-02   2.1732811e-03
  -1.3732910e-02   2.1674297e-03
  -1.2130737e-02   2.1615350e-03
  -1.2130737e-02   2.1555979e-03
  -1.3275146e-02   2.1496191e-03
  -1.1978149e-02   2.1435994e-03
  -1.2741089e-02   2.1375395e-03
  -1.4572144e-02   2.1314403e-03
  -1.5869141e-02   2.1253026e-03
  -1.6479492e-02   2.1191274e-03
  -1.6326904e-02   2.1129154e-03
  -1.6174316e-02   2.1066677e-03
  -1.6632080e-02   2.1003852e-03
  -2.1972656e-02   2.0940689e-03
  -2.3651123e-02   2.0877198e-03
  -1.8157959e-02   2.0813390e-03
  -1.5563965e-02   2.0749275e-03
  -1.2588501e-02   2.0684865e-03
  -1.1825562e-02   2.0620171e-03
  -1.2130737e-02   2.0555205e-03
  -1.2588501e-02   2.0489978e-03
  -1.4038086e-02   2.0424503e-03
  -1.3885498e-02   2.0358792e-03
  -1.2435913e-02   2.0292859e-03
  -1.2283325e-02   2.0226716e-03
  -1.4724731e-02   2.0160377e-03
  -1.4572144e-02   2.0093856e-03
  -1.5335083e-02   2.0027167e-03
  -1.5563965e-02   1.9960324e-03
  -1.5029907e-02   1.9893342e-03
  -1.3580322e-02   1.9826235e-03
  -1.3275146e-02   1.9759021e-03
  -1.5029907e-02   1.9691713e-03
  -2.1057129e-02   1.9624327e-03
  -1.9912720e-02   1.9556881e-03
  -1.2588501e-02   1.9489391e-03
  -1.1978149e-02   1.9421872e-03
  -1.3580322e-02   1.9354344e-03
  -1.4266968e-02   1.9286822e-03
  -1.3580322e-02   1.9219326e-03
  -1.1138916e-02   1.9151872e-03
  -1.0833740e-02   1.9084480e-03
  -1.1825562e-02   1.9017167e-03
  -1.2588501e-02   1.8949954e-03
  -1.3427734e-02   1.8882858e-03
  -1.2741089e-02   1.8815901e-03
  -1.3732910e-02   1.8749101e-03
  -1.2588501e-02   1.8682479e-03
  -1.2741089e-02   1.8616056e-03
  -1.3122559e-02   1.8549851e-03
  -1.3275146e-02   1.8483887e-03
  -1.2969971e-02   1.8418183e-03
  -1.0528564e-02   1.8352763e-03
  -1.5869141e-02   1.8287648e-03
  -1.6860962e-02   1.8222860e-03
  -1.4038086e-02   1.8158421e-03
  -1.4266968e-02   1.8094353e-03
  -1.4572144e-02   1.8030681e-03
  -1.4877319e-02   1.7967427e-03
  -1.8615723e-02   1.7904614e-03
  -2.1514893e-02   1.7842267e-03
  -2.1209717e-02   1.7780408e-03
  -2.1209717e-02   1.7719062e-03
  -2.2811890e-02   1.7658254e-03
  -2.2201538e-02   1.7598008e-03
  -1.9454956e-02   1.7538348e-03
  -1.5335083e-02   1.7479300e-03
  -1.4572144e-02   1.7420888e-03
  -1.5716553e-02   1.7363139e-03
  -1.6632080e-02   1.7306077e-03
  -1.5869141e-02   1.7249729e-03
  -1.4572144e-02   1.7194119e-03
  -1.4724731e-02   1.7139274e-03
  -2.1057129e-02   1.7085221e-03
  -2.1362305e-02   1.7031984e-03
  -1.3732910e-02   1.6979591e-03
  -1.1291504e-02   1.6928069e-03
  -9.8419189e-03   1.6877443e-03
  -8.8500977e-03   1.6827740e-03
  -9.0789795e-03   1.6778987e-03
  -1.1825562e-02   1.6731211e-03
  -1.2435913e-02   1.6684438e-03
  -1.2969971e-02   1.6638696e-03
  -1.3427734e-02   1.6594010e-03
  -1.3732910e-02   1.6550409e-03
  -1.3122559e-02   1.6507919e-03
  -1.1825562e-02   1.6466567e-03
  -9.0789795e-03   1.6426380e-03
  -9.0789795e-03   1.6387383e-03
  -6.6375732e-03   1.6349605e-03
  -6.4849854e-03   1.6313072e-03
  -8.0871582e-03   1.6277811e-03
  -9.8419189e-03   1.6243847e-03
  -1.4724731e-02   1.6211207e-03
  -1.4572144e-02   1.6179917e-03
  -1.0986328e-02   1.6150004e-03
  -1.2969971e-02   1.6121494e-03
  -1.4724731e-02   1.6094411e-03
  -1.4877319e-02   1.6068782e-03
  -1.3122559e-02   1.6044631e-03
  -1.1672974e-02   1.6021985e-03
  -1.2283325e-02   1.6000867e-03
  -1.3122559e-02   1.5981302e-03
  -1.4572144e-02   1.5963315e-03
  -1.4038086e-02   1.5946929e-03
  -1.4266968e-02   1.5932168e-03
  -1.3732910e-02   1.5919055e-03
  -1.4724731e-02   1.5907614e-03
  -1.4572144e-02   1.5897867e-03
  -1.5182495e-02   1.5889835e-03
  -1.3580322e-02   1.5883542e-03
  -1.3122559e-02   1.5879007e-03
  -1.4724731e-02   1.5876253e-03
  -1.9912720e-02   1.5875299e-03
  -2.0675659e-02   1.5876166e-03
  -1.7166138e-02   1.5878873e-03
  -1.5029907e-02   1.5883439e-03
  -1.2741089e-02   1.5889883e-03
  -1.3275146e-02   1.5898222e-03
  -1.7623901e-02   1.5908474e-03
  -1.8310547e-02   1.5920656e-03
  -1.7776489e-02   1.5934783e-03
  -1.5563965e-02   1.5950872e-03
  -1.3732910e-02   1.5968937e-03
  -1.3122559e-02   1.5988993e-03
  -1.3580322e-02   1.6011053e-03
  -1.4266968e-02   1.6035130e-03
  -1.0681152e-02   1.6061237e-03
  -9.6893311e-03   1.6089385e-03
  -8.8500977e-03   1.6119585e-03
  -1.0986328e-02   1.6151847e-03
  -1.1444092e-02   1.6186179e-03
  -1.1672974e-02   1.6222592e-03
  -1.6174316e-02   1.6261093e-03
  -1.6021729e-02   1.6301688e-03
  -1.2588501e-02   1.6344383e-03
  -1.3122559e-02   1.6389185e-03
  -1.3580322e-02   1.6436097e-03
  -1.4724731e-02   1.6485124e-03
  -1.5029907e-02   1.6536267e-03
  -1.4038086e-02   1.6589529e-03
  -1.1978149e-02   1.6644910e-03
  -1.0986328e-02   1.6702412e-03
  -1.1291504e-02   1.6762033e-03
  -1.1291504e-02   1.6823770e-03
  -1.2130737e-02   1.6887622e-03
  -1.3885498e-02   1.6953585e-03
  -1.5182495e-02   1.7021655e-03
  -1.2969971e-02   1.7091825e-03
  -1.1444092e-02   1.7164089e-03
  -1.2588501e-02   1.7238439e-03
  -1.2969971e-02   1.7314868e-03
  -1.1825562e-02   1.7393365e-03
  -1.5869141e-02   1.7473921e-03
  -1.6860962e-02   1.7556522e-03
  -1.4419556e-02   1.7641158e-03
  -1.5563965e-02   1.7727814e-03
  -1.7166138e-02   1.7816476e-03
  -1.4877319e-02   1.7907129e-03
  -1.4724731e-02   1.7999755e-03
  -1.4877319e-02   1.8094336e-03
  -1.5182495e-02   1.8190856e-03
  -1.4419556e-02   1.8289292e-03
  -1.3275146e-02   1.8389626e-03
  -1.3427734e-02   1.8491834e-03
  -1.3275146e-02   1.8595895e-03
  -1.5335083e-02   1.8701784e-03
  -1.7318726e-02   1.8809476e-03
  -1.6632080e-02   1.8918946e-03
  -1.4419556e-02   1.9030167e-03
  -1.1978149e-02   1.9143110e-03
  -1.0375977e-02   1.9257747e-03
  -8.6975098e-03   1.9374048e-03
  -1.5563965e-02   1.9491982e-03
  -1.9912720e-02   1.9611516e-03
  -1.5335083e-02   1.9732618e-03
  -1.4877319e-02   1.9855255e-03
  -1.3427734e-02   1.9979390e-03
  -1.2435913e-02   2.0104989e-03
  -1.2588501e-02   2.0232014e-03
  -1.4419556e-02   2.0360429e-03
  -1.4419556e-02   2.0490193e-03
  -1.4266968e-02   2.0621268e-03
  -1.4572144e-02   2.0753613e-03
  -1.6021729e-02   2.0887187e-03
  -1.5335083e-02   2.1021948e-03
  -1.3732910e-02   2.1157852e-03
  -1.2588501e-02   2.1294856e-03
  -1.2588501e-02   2.1432915e-03
  -1.2969971e-02   2.1571984e-03
  -1.4419556e-02   2.1712016e-03
  -1.5869141e-02   2.1852964e-03
  -1.5182495e-02   2.1994780e-03
  -1.7929077e-02   2.2137417e-03
  -1.7471313e-02   2.2280824e-03
  -1.4266968e-02   2.2424952e-03
  -1.3580322e-02   2.2569751e-03
  -1.3732910e-02   2.2715168e-03
  -1.3732910e-02   2.2861154e-03
  -1.3275146e-02   2.3007654e-03
  -1.2588501e-02   2.3154616e-03
  -1.2588501e-02   2.3301987e-03
  -1.3732910e-02   2.3449712e-03
  -1.1978149e-02   2.3597738e-03
  -9.8419189e-03   2.3746010e-03
  -9.6893311e-03   2.3894471e-03
  -9.5367432e-03   2.4043067e-03
  -1.2130737e-02   2.4191740e-03
  -1.3275146e-02   2.4340436e-03
  -1.3275146e-02   2.4489097e-03
  -1.0528564e-02   2.4637666e-03
  -9.9945068e-03   2.4786086e-03
  -1.3427734e-02   2.4934300e-03
  -1.9912720e-02   2.5082249e-03
  -2.2201538e-02   2.5229876e-03
  -1.8157959e-02   2.5377124e-03
  -1.7471313e-02   2.5523933e-03
  -1.6632080e-02   2.5670247e-03
  -1.5716553e-02   2.5816007e-03
  -1.5029907e-02   2.5961155e-03
  -1.3122559e-02   2.6105633e-03
  -1.2435913e-02   2.6249383e-03
  -1.3732910e-02   2.6392348e-03
  -1.1291504e-02   2.6534470e-03
  -1.1138916e-02   2.6675692e-03
  -9.5367432e-03   2.6815956e-03
  -9.8419189e-03   2.6955206e-03
  -1.1138916e-02   2.7093385e-03
  -1.1672974e-02   2.7230437e-03
  -1.1825562e-02   2.7366306e-03
  -1.0986328e-02   2.7500936e-03
  -1.1978149e-02   2.7634274e-03
  -1.3122559e-02   2.7766264e-03
  -1.8310547e-02   2.7896852e-03
  -1.9607544e-02   2.8025986e-03
  -1.4877319e-02   2.8153612e-03
  -1.4266968e-02   2.8279679e-03
  -1.1825562e-02   2.8404135e-03
  -1.0528564e-02   2.8526929e-03
  -1.0375977e-02   2.8648012e-03
  -1.0375977e-02   2.8767334e-03
  -9.8419189e-03   2.8884848e-03
  -1.0375977e-02   2.9000507e-03
  -1.0681152e-02   2.9114262e-03
  -8.0871582e-03   2.9226070e-03
  -5.9509277e-03   2.9335886e-03
  -5.6457520e-03   2.9443667e-03
  -5.9509277e-03   2.9549369e-03
  -8.5449219e-03   2.9652952e-03
  -1.0147095e-02   2.9754376e-03
  -1.0681152e-02   2.9853602e-03
  -9.6893311e-03   2.9950592e-03
  -1.0833740e-02   3.0045310e-03
  -1.9760132e-02   3.0137720e-03
  -2.1057129e-02   3.0227789e-03
  -1.5029907e-02   3.0315484e-03
  -1.3580322e-02   3.0400774e-03
  -1.5182495e-02   3.0483630e-03
  -1.5716553e-02   3.0564023e-03
  -1.4572144e-02   3.0641926e-03
  -1.5182495e-02   3.0717315e-03
  -1.4419556e-02   3.0790166e-03
  -1.4877319e-02   3.0860457e-03
  -1.2588501e-02   3.0928167e-03
  -1.1444092e-02   3.0993277e-03
  -1.2130737e-02   3.1055771e-03
  -1.3122559e-02   3.1115633e-03
  -1.3275146e-02   3.1172849e-03
  -1.2130737e-02   3.1227408e-03
  -1.2435913e-02   3.1279299e-03
  -1.2741089e-02   3.1328514e-03
  -1.0681152e-02   3.1375046e-03
  -1.1444092e-02   3.1418892e-03
  -2.1057129e-02   3.1460047e-03
  -2.6550293e-02   3.1498511e-03
  -2.3498535e-02   3.1534286e-03
  -2.4414062e-02   3.1567374e-03
  -2.4108887e-02   3.1597780e-03
  -2.0904541e-02   3.1625511e-03
  -1.7013550e-02   3.1650576e-03
  -1.4038086e-02   3.1672986e-03
  -1.1672974e-02   3.1692754e-03
  -1.0681152e-02   3.1709894e-03
  -8.5449219e-03   3.1724425e-03
  -9.8419189e-03   3.1736364e-03
  -1.0833740e-02   3.1745733e-03
  -1.2435913e-02   3.1752555e-03
  -1.2741089e-02   3.1756856e-03
  -1.2435913e-02   3.1758662e-03
  -1.2283325e-02   3.1758004e-03
  -1.4038086e-02   3.1754912e-03
  -1.7318726e-02   3.1749421e-03
  -1.8615723e-02   3.1741566e-03
  -2.6397705e-02   3.1731385e-03
  -2.8991699e-02   3.1718918e-03
  -2.7008057e-02   3.1704207e-03
  -2.7999878e-02   3.1687296e-03
  -2.8686523e-02   3.1668231e-03
  -2.7999878e-02   3.1647061e-03
  -2.4261475e-02   3.1623836e-03
  -2.2964478e-02   3.1598609e-03
  -2.2506714e-02   3.1571433e-03
  -2.1972656e-02   3.1542366e-03
  -2.0217896e-02   3.1511466e-03
  -1.8157959e-02   3.1478794e-03
  -1.8768311e-02   3.1444413e-03
  -1.6860962e-02   3.1408386e-03
  -1.6326904e-02   3.1370781e-03
  -1.5335083e-02   3.1331665e-03
  -1.6326904e-02   3.1291111e-03
  -1.9760132e-02   3.1249189e-03
  -2.1667480e-02   3.1205975e-03
  -2.2811890e-02   3.1161544e-03
  -2.4414062e-02   3.1115975e-03
  -2.2964478e-02   3.1069346e-03
  -1.5869141e-02   3.1021741e-03
  -1.3732910e-02   3.0973243e-03
  -1.2741089e-02   3.0923935e-03
  -1.4572144e-02   3.0873907e-03
  -1.8615723e-02   3.0823245e-03
  -1.8768311e-02   3.0772041e-03
  -1.8768311e-02   3.0720386e-03
  -1.8157959e-02   3.0668374e-03
  -1.7471313e-02   3.0616099e-03
  -1.7166138e-02   3.0563659e-03
  -1.7471313e-02   3.0511150e-03
  -1.6632080e-02   3.0458674e-03
  -1.5335083e-02   3.0406330e-03
  -1.5182495e-02   3.0354222e-03
  -1.4038086e-02   3.0302452e-03
  -1.1291504e-02   3.0251125e-03
  -1.0528564e-02   3.0200348e-03
  -1.0681152e-02   3.0150228e-03
  -1.8157959e-02   3.0100874e-03
  -1.8920898e-02   3.0052395e-03
  -1.6326904e-02   3.0004903e-03
  -1.8615723e-02   2.9958508e-03
  -2.0065308e-02   2.9913324e-03
  -1.8463135e-02   2.9869464e-03
  -1.8157959e-02   2.9827044e-03
  -1.5182495e-02   2.9786178e-03
  -1.2969971e-02   2.9746983e-03
  -1.1138916e-02   2.9709576e-03
  -1.1825562e-02   2.9674074e-03
  -1.3275146e-02   2.9640597e-03
  -1.5563965e-02   2.9609262e-03
  -1.8157959e-02   2.9580190e-03
  -1.8615723e-02   2.9553501e-03
  -1.9454956e-02   2.9529314e-03
  -2.1209717e-02   2.9507751e-03
  -2.4414062e-02   2.9488933e-03
  -2.6397705e-02   2.9472981e-03
  -2.6702881e-02   2.9460017e-03
  -3.1585693e-02   2.9450163e-03
  -2.9296875e-02   2.9443540e-03
  -2.0065308e-02   2.9440271e-03
  -1.5563965e-02   2.9440477e-03
  -1.1978149e-02   2.9444280e-03
  -9.0789795e-03   2.9451801e-03
  -8.3923340e-03   2.9463163e-03
  -9.2315674e-03   2.9478486e-03
  -1.0528564e-02   2.9497892e-03
  -1.2588501e-02   2.9521501e-03
  -1.2741089e-02   2.9549432e-03
  -1.2741089e-02   2.9581806e-03
  -1.2969971e-02   2.9618742e-03
  -1.3275146e-02   2.9660357e-03
  -1.2969971e-02   2.9706770e-03
  -1.1672974e-02   2.9758098e-03
  -1.2969971e-02   2.9814456e-03
  -1.3732910e-02   2.9875961e-03
  -1.5029907e-02   2.9942726e-03
  -1.6174316e-02   3.0014865e-03
  -2.2811890e-02   3.0092490e-03
  -2.4414062e-02   3.0175713e-03
  -1.8157959e-02   3.0264642e-03
  -1.6479492e-02   3.0359389e-03
  -1.4572144e-02   3.0460059e-03
  -1.4877319e-02   3.0566758e-03
  -1.3885498e-02   3.0679593e-03
  -1.3427734e-02   3.0798665e-03
  -1.4419556e-02   3.0924077e-03
  -1.3885498e-02   3.1055929e-03
  -1.5563965e-02   3.1194319e-03
  -1.6632080e-02   3.1339345e-03
  -1.5335083e-02   3.1491100e-03
  -1.2969971e-02   3.1649678e-03
  -1.1825562e-02   3.1815172e-03
  -1.3122559e-02   3.1987669e-03
  -1.3732910e-02   3.2167257e-03
  -1.2969971e-02   3.2354023e-03
  -1.4038086e-02   3.2548048e-03
  -1.3732910e-02   3.2749415e-03
  -1.7623901e-02   3.2958202e-03
  -1.9607544e-02   3.3174485e-03
  -1.5029907e-02   3.3398340e-03
  -1.3580322e-02   3.3629838e-03
  -1.3275146e-02   3.3869049e-03
  -1.4572144e-02   3.4116040e-03
  -1.4419556e-02   3.4370876e-03
  -1.3580322e-02   3.4633619e-03
  -1.3275146e-02   3.4904328e-03
  -1.2435913e-02   3.5183062e-03
  -1.2588501e-02   3.5469873e-03
  -1.2741089e-02   3.5764815e-03
  -1.2969971e-02   3.6067935e-03
  -1.1978149e-02   3.6379280e-03
  -1.1978149e-02   3.6698894e-03
  -1.1138916e-02   3.7026816e-03
  -9.2315674e-03   3.7363085e-03
  -8.6975098e-03   3.7707735e-03
  -1.1138916e-02   3.8060799e-03
  -1.3427734e-02   3.8422304e-03
  -1.7013550e-02   3.8792277e-03
  -1.7166138e-02   3.9170741e-03
  -1.2969971e-02   3.9557715e-03
  -1.3885498e-02   3.9953217e-03
  -1.3885498e-02   4.0357259e-03
  -1.3122559e-02   4.0769852e-03
  -1.4266968e-02   4.1191004e-03
  -1.2130737e-02   4.1620718e-03
  -1.1444092e-02   4.2058996e-03
  -1.1978149e-02   4.2505835e-03
  -1.2283325e-02   4.2961231e-03
  -1.1825562e-02   4.3425173e-03
  -1.1978149e-02   4.3897652e-03
  -1.3580322e-02   4.4378650e-03
  -1.0528564e-02   4.4868150e-03
  -9.2315674e-03   4.5366131e-03
  -9.8419189e-03   4.5872567e-03
  -8.3923340e-03   4.6387429e-03
  -8.2397461e-03   4.6910687e-03
  -7.2479248e-03   4.7442306e-03
  -1.4724731e-02   4.7982247e-03
  -1.5029907e-02   4.8530470e-03
  -1.1444092e-02   4.9086928e-03
  -1.0833740e-02   4.9651575e-03
  -8.2397461e-03   5.0224360e-03
  -6.7901611e-03   5.0805227e-03
  -5.4931641e-03   5.1394118e-03
  -6.1035156e-03   5.1990973e-03
  -7.2479248e-03   5.2595728e-03
  -9.6893311e-03   5.3208315e-03
  -1.3885498e-02   5.3828662e-03
  -1.9073486e-02   5.4456697e-03
  -2.6702881e-02   5.5092341e-03
  -3.5324097e-02   5.5735515e-03
  -4.1427612e-02   5.6386134e-03
  -4.2266846e-02   5.7044113e-03
  -4.0969849e-02   5.7709361e-03
  -3.7918091e-02   5.8381786e-03
  -3.0136108e-02   5.9061292e-03
  -2.1514893e-02   5.9747779e-03
  -1.9454956e-02   6.0441145e-03
  -1.6860962e-02   6.1141287e-03
  -1.0147095e-02   6.1848095e-03
  -9.3841553e-03   6.2561459e-03
  -1.0681152e-02   6.3281265e-03
  -1.0986328e-02   6.4007397e-03
  -9.8419189e-03   6.4739735e-03
  -8.6975098e-03   6.5478157e-03
  -6.7901611e-03   6.6222538e-03
  -6.7901611e-03   6.6972752e-03
  -6.7901611e-03   6.7728667e-03
  -6.1035156e-03   6.8490151e-03
  -3.8909912e-03   6.9257068e-03
  -2.8991699e-03   7.0029282e-03
  -6.1035156e-04   7.0806652e-03
   6.1035156e-04   7.1589034e-03
   4.5776367e-04   7.2376285e-03
   3.0517578e-04   7.3168258e-03
  -1.1444092e-03   7.3964802e-03
   3.0517578e-04   7.4765767e-03
  -3.8909912e-03   7.5570998e-03
  -4.1961670e-03   7.6380341e-03
   4.5776367e-04   7.7193638e-03
  -4.5776367e-04   7.8010730e-03
  -2.4414062e-03   7.8831454e-03
  -7.0953369e-03   7.9655650e-03
  -1.0528564e-02   8.0483151e-03
  -1.2969971e-02   8.1313792e-03
  -1.5335083e-02   8.2147405e-03
  -1.6632080e-02   8.2983821e-03
  -1.9226074e-02   8.3822869e-03
  -2.1820068e-02   8.4664379e-03
  -2.4566650e-02   8.5508176e-03
  -2.5253296e-02   8.6354087e-03
  -2.6397705e-02   8.7201938e-03
  -2.3651123e-02   8.8051551e-03
  -1.6632080e-02   8.8902751e-03
  -1.1444092e-02   8.9755360e-03
  -8.6975098e-03   9.0609199e-03
  -7.9345703e-03   9.1464090e-03
  -1.0147095e-02   9.2319854e-03
  -8.6975098e-03   9.3176311e-03
  -4.0435791e-03   9.4033282e-03
  -4.8065186e-03   9.4890585e-03
  -6.6375732e-03   9.5748042e-03
  -5.9509277e-03   9.6605472e-03
  -4.9591064e-03   9.7462695e-03
  -5.7983398e-03   9.8319530e-03
  -1.0147095e-02   9.9175800e-03
  -1.4038086e-02   1.0003132e-02
  -1.2741089e-02   1.0088592e-02
  -1.1291504e-02   1.0173942e-02
  -1.0375977e-02   1.0259164e-02
  -8.2397461e-03   1.0344241e-02
  -5.4931641e-03   1.0429154e-02
  -1.7547607e-03   1.0513886e-02
  -3.0517578e-04   1.0598421e-02
   3.6621094e-03   1.0682741e-02
   5.9509277e-03   1.0766828e-02
   7.4005127e-03   1.0850667e-02
   4.8065186e-03   1.0934239e-02
   6.9427490e-03   1.1017529e-02
   1.2741089e-02   1.1100520e-02
   1.2283325e-02   1.1183195e-02
   1.2588501e-02   1.1265539e-02
   1.3580322e-02   1.1347536e-02
   1.3580322e-02   1.1429170e-02
   1.3580322e-02   1.1510426e-02
   1.2130737e-02   1.1591288e-02
   1.2283325e-02   1.1671742e-02
   9.8419189e-03   1.1751772e-02
   7.4005127e-03   1.1831365e-02
   3.9672852e-03   1.1910506e-02
   7.6293945e-04   1.1989181e-02
  -1.5258789e-04   1.2067377e-02
  -4.5776367e-04   1.2145080e-02
   1.6021729e-03   1.2222277e-02
   2.8991699e-03   1.2298955e-02
   7.6293945e-04   1.2375103e-02
  -7.0953369e-03   1.2450708e-02
  -2.4795532e-02   1.2525759e-02
  -4.1580200e-02   1.2600243e-02
  -5.9280396e-02   1.2674150e-02
  -8.2778931e-02   1.2747469e-02
  -9.7656250e-02   1.2820191e-02
  -9.9105835e-02   1.2892304e-02
  -9.4146729e-02   1.2963799e-02
  -9.0026855e-02   1.3034668e-02
  -8.7661743e-02   1.3104902e-02
  -7.9345703e-02   1.3174491e-02
  -6.3629150e-02   1.3243428e-02
  -4.7760010e-02   1.3311706e-02
  -4.3106079e-02   1.3379316e-02
  -4.6615601e-02   1.3446254e-02
  -4.9591064e-02   1.3512511e-02
  -4.9743652e-02   1.3578083e-02
  -4.9057007e-02   1.3642963e-02
  -4.2572021e-02   1.3707147e-02
  -3.1738281e-02   1.3770630e-02
  -2.1057129e-02   1.3833407e-02
  -1.8768311e-02   1.3895476e-02
  -1.4572144e-02   1.3956832e-02
  -6.9427490e-03   1.4017473e-02
  -6.6375732e-03   1.4077397e-02
  -1.1825562e-02   1.4136601e-02
  -1.5716553e-02   1.4195083e-02
  -1.7471313e-02   1.4252844e-02
  -1.5029907e-02   1.4309882e-02
  -1.0986328e-02   1.4366197e-02
  -8.3923340e-03   1.4421790e-02
  -5.7983398e-03   1.4476661e-02
  -3.8909912e-03   1.4530811e-02
  -2.5939941e-03   1.4584242e-02
  -2.2125244e-03   1.4636956e-02
  -6.1035156e-04   1.4688956e-02
   7.6293945e-05   1.4740244e-02
  -1.7547607e-03   1.4790825e-02
  -7.0953369e-03   1.4840702e-02
  -1.5563965e-02   1.4889880e-02
  -3.0136108e-02   1.4938362e-02
  -5.4550171e-02   1.4986156e-02
  -6.7672729e-02   1.5033265e-02
  -5.8135986e-02   1.5079697e-02
  -4.1427612e-02   1.5125458e-02
  -2.9983521e-02   1.5170554e-02
  -2.6092529e-02   1.5214995e-02
  -3.0899048e-02   1.5258786e-02
  -3.6621094e-02   1.5301936e-02
  -3.9978027e-02   1.5344455e-02
  -3.8528442e-02   1.5386351e-02
  -2.9983521e-02   1.5427633e-02
  -2.0065308e-02   1.5468312e-02
  -1.3275146e-02   1.5508397e-02
  -1.0986328e-02   1.5547900e-02
  -9.6893311e-03   1.5586832e-02
  -6.4849854e-03   1.5625203e-02
  -3.6621094e-03   1.5663025e-02
  -1.9073486e-03   1.5700311e-02
  -9.1552734e-04   1.5737074e-02
   5.9509277e-03   1.5773325e-02
   1.1444092e-02   1.5809078e-02
   2.0980835e-02   1.5844346e-02
   3.3798218e-02   1.5879144e-02
   3.2501221e-02   1.5913485e-02
   1.7929077e-02   1.5947383e-02
  -4.1961670e-03   1.5980854e-02
  -1.7166138e-02   1.6013912e-02
  -1.3885498e-02   1.6046572e-02
  -2.4414062e-03   1.6078851e-02
   1.0986328e-02   1.6110763e-02
   2.5405884e-02   1.6142324e-02
   4.3029785e-02   1.6173552e-02
   5.9127808e-02   1.6204461e-02
   6.5078735e-02   1.6235069e-02
   5.3558350e-02   1.6265393e-02
   2.9602051e-02   1.6295449e-02
   5.6457520e-03   1.6325255e-02
  -1.7471313e-02   1.6354828e-02
  -4.9057007e-02   1.6384185e-02
  -8.4228516e-02   1.6413344e-02
  -9.7198486e-02   1.6442323e-02
  -6.2026978e-02   1.6471139e-02
  -3.3569336e-03   1.6499811e-02
   2.5100708e-02   1.6528356e-02
   2.1514893e-02   1.6556792e-02
   1.6937256e-02   1.6585137e-02
   2.7465820e-02   1.6613411e-02
   3.7689209e-02   1.6641630e-02
   3.6087036e-02   1.6669813e-02
   2.7160645e-02   1.6697978e-02
   2.3956299e-02   1.6726143e-02
   2.6855469e-02   1.6754327e-02
   2.6855469e-02   1.6782547e-02
   2.5253296e-02   1.6810822e-02
   2.1362305e-02   1.6839169e-02
   2.0523071e-02   1.6867607e-02
   2.1667480e-02   1.6896153e-02
   2.2506714e-02   1.6924824e-02
   2.0980835e-02   1.6953640e-02
   1.8920898e-02   1.6982616e-02
   1.6632080e-02   1.7011770e-02
   1.7623901e-02   1.7041120e-02
   2.0980835e-02   1.7070682e-02
   1.7623901e-02   1.7100473e-02
   1.3580322e-02   1.7130509e-02
   8.5449219e-03   1.7160808e-02
   3.5095215e-03   1.7191385e-02
  -1.7547607e-03   1.7222256e-02
  -1.0147095e-02   1.7253436e-02
  -2.1362305e-02   1.7284942e-02
  -3.3493042e-02   1.7316788e-02
  -4.5471191e-02   1.7348989e-02
  -5.4397583e-02   1.7381559e-02
  -5.9585571e-02   1.7414514e-02
  -6.1416626e-02   1.7447867e-02
  -6.3476562e-02   1.7481632e-02
  -6.8664551e-02   1.7515822e-02
  -6.8359375e-02   1.7550450e-02
  -6.3018799e-02   1.7585528e-02
  -5.2947998e-02   1.7621070e-02
  -5.1651001e-02   1.7657087e-02
  -4.9209595e-02   1.7693591e-02
  -4.6157837e-02   1.7730593e-02
  -4.8751831e-02   1.7768104e-02
  -4.7912598e-02   1.7806135e-02
  -4.9896240e-02   1.7844696e-02
  -5.2947998e-02   1.7883796e-02
  -5.5694580e-02   1.7923445e-02
  -5.6381226e-02   1.7963652e-02
  -5.6838989e-02   1.8004426e-02
  -5.9585571e-02   1.8045774e-02
  -6.3018799e-02   1.8087706e-02
  -6.7214966e-02   1.8130228e-02
  -6.6223145e-02   1.8173347e-02
  -5.8288574e-02   1.8217070e-02
  -4.7302246e-02   1.8261403e-02
  -3.7918091e-02   1.8306352e-02
  -3.3493042e-02   1.8351923e-02
  -3.2882690e-02   1.8398121e-02
  -3.4332275e-02   1.8444951e-02
  -4.0512085e-02   1.8492416e-02
  -3.8070679e-02   1.8540522e-02
  -2.8305054e-02   1.8589270e-02
  -2.1362305e-02   1.8638666e-02
  -1.4266968e-02   1.8688711e-02
  -7.0953369e-03   1.8739409e-02
  -1.2969971e-03   1.8790761e-02
   1.9073486e-03   1.8842769e-02
   5.7983398e-03   1.8895435e-02
   6.7901611e-03   1.8948760e-02
   6.2561035e-03   1.9002745e-02
   3.3569336e-03   1.9057390e-02
   1.2207031e-03   1.9112696e-02
   3.0517578e-04   1.9168662e-02
  -6.1035156e-04   1.9225289e-02
  -4.5776367e-04   1.9282575e-02
  -1.5258789e-04   1.9340520e-02
   1.0681152e-03   1.9399123e-02
   3.5095215e-03   1.9458383e-02
   4.1961670e-03   1.9518297e-02
  -1.5258789e-04   1.9578865e-02
   4.5776367e-04   1.9640083e-02
   6.1035156e-03   1.9701951e-02
   5.7983398e-03   1.9764465e-02
   4.8065186e-03   1.9827623e-02
   4.1961670e-03   1.9891422e-02
  -4.5776367e-04   1.9955860e-02
  -4.5013428e-03   2.0020934e-02
  -4.0435791e-03   2.0086640e-02
  -4.5776367e-04   2.0152975e-02
   1.0681152e-03   2.0219936e-02
  -2.5939941e-03   2.0287520e-02
  -7.0953369e-03   2.0355723e-02
  -1.1825562e-02   2.0424542e-02
  -1.4266968e-02   2.0493973e-02
  -1.1444092e-02   2.0564012e-02
  -3.2043457e-03   2.0634657e-02
   4.8065186e-03   2.0705903e-02
   6.4086914e-03   2.0777746e-02
   7.6293945e-04   2.0850184e-02
  -1.1825562e-02   2.0923212e-02
  -3.0517578e-03   2.0996827e-02
   3.5247803e-02   2.1071026e-02
   6.9122314e-02   2.1145804e-02
   7.9040527e-02   2.1221159e-02
   5.4092407e-02   2.1297087e-02
   1.2130737e-02   2.1373585e-02
  -3.2043457e-02   2.1450650e-02
  -6.8664551e-02   2.1528278e-02
  -9.9945068e-02   2.1606466e-02
  -1.2588501e-01   2.1685212e-02
  -1.4060974e-01   2.1764513e-02
  -1.2489319e-01   2.1844366e-02
  -6.7062378e-02   2.1924768e-02
   2.3574829e-02   2.2005717e-02
   1.0993958e-01   2.2087210e-02
   1.4564514e-01   2.2169246e-02
   1.1108398e-01   2.2251821e-02
   4.2877197e-02   2.2334934e-02
  -5.3405762e-03   2.2418583e-02
  -3.2730103e-02   2.2502767e-02
  -5.1498413e-02   2.2587482e-02
  -6.8969727e-02   2.2672729e-02
  -7.4157715e-02   2.2758504e-02
  -5.3939819e-02   2.2844808e-02
  -2.9754639e-02   2.2931638e-02
  -2.3117065e-02   2.3018993e-02
  -2.9296875e-02   2.3106873e-02
  -1.7929077e-02   2.3195275e-02
   3.0517578e-03   2.3284200e-02
   5.6457520e-03   2.3373647e-02
  -2.4261475e-02   2.3463613e-02
  -5.8441162e-02   2.3554100e-02
  -6.8511963e-02   2.3645105e-02
  -5.4244995e-02   2.3736628e-02
  -3.1890869e-02   2.3828669e-02
  -1.4724731e-02   2.3921227e-02
  -2.7465820e-03   2.4014301e-02
   5.9509277e-03   2.4107890e-02
   1.3427734e-02   2.4201993e-02
   1.0833740e-02   2.4296611e-02
   1.6021729e-03   2.4391741e-02
  -1.0681152e-02   2.4487384e-02
  -2.9296875e-02   2.4583538e-02
  -3.9825439e-02   2.4680202e-02
  -4.2114258e-02   2.4777374e-02
  -4.0283203e-02   2.4875055e-02
  -3.8223267e-02   2.4973241e-02
  -3.6773682e-02   2.5071933e-02
  -3.4484863e-02   2.5171127e-02
  -2.8991699e-02   2.5270822e-02
  -2.5711060e-02   2.5371016e-02
  -2.9754639e-02   2.5471707e-02
  -3.9978027e-02   2.5572892e-02
  -4.0283203e-02   2.5674569e-02
  -2.8686523e-02   2.5776734e-02
  -9.8419189e-03   2.5879384e-02
   9.1552734e-03   2.5982516e-02
   2.6016235e-02   2.6086125e-02
   3.6544800e-02   2.6190208e-02
   3.3950806e-02   2.6294760e-02
   3.7536621e-02   2.6399777e-02
   4.6310425e-02   2.6505253e-02
   3.6087036e-02   2.6611183e-02
   2.8991699e-03   2.6717560e-02
  -3.7231445e-02   2.6824380e-02
  -6.4773560e-02   2.6931634e-02
  -7.4157715e-02   2.7039316e-02
  -7.0266724e-02   2.7147418e-02
  -6.3476562e-02   2.7255933e-02
  -5.4092407e-02   2.7364851e-02
  -4.3563843e-02   2.7474165e-02
  -3.3493042e-02   2.7583865e-02
  -2.8152466e-02   2.7693941e-02
  -2.6245117e-02   2.7804382e-02
  -2.3956299e-02   2.7915179e-02
  -2.4566650e-02   2.8026319e-02
  -2.8152466e-02   2.8137792e-02
  -3.0593872e-02   2.8249584e-02
  -3.1585693e-02   2.8361683e-02
  -3.6621094e-02   2.8474076e-02
  -3.6087036e-02   2.8586748e-02
  -2.8152466e-02   2.8699686e-02
  -2.6245117e-02   2.8812874e-02
  -2.1972656e-02   2.8926298e-02
  -1.7776489e-02   2.9039941e-02
  -1.1291504e-02   2.9153786e-02
  -7.2479248e-03   2.9267816e-02
  -5.4931641e-03   2.9382015e-02
  -7.9345703e-03   2.9496363e-02
  -1.3580322e-02   2.9610843e-02
  -2.1514893e-02   2.9725435e-02
  -2.4566650e-02   2.9840118e-02
  -2.2659302e-02   2.9954874e-02
  -1.7013550e-02   3.0069681e-02
  -1.1672974e-02   3.0184519e-02
  -1.0681152e-02   3.0299364e-02
  -1.7623901e-02   3.0414196e-02
  -2.6855469e-02   3.0528991e-02
  -3.3645630e-02   3.0643727e-02
  -3.8528442e-02   3.0758379e-02
  -3.6926270e-02   3.0872923e-02
  -2.6245117e-02   3.0987336e-02
  -1.5335083e-02   3.1101592e-02
   3.9672852e-03   3.1215665e-02
   2.0980835e-02   3.1329530e-02
   2.1667480e-02   3.1443162e-02
   1.7547607e-03   3.1556532e-02
  -2.2354126e-02   3.1669615e-02
  -2.9602051e-02   3.1782384e-02
  -1.3580322e-02   3.1894810e-02
  -1.4495850e-03   3.2006867e-02
  -1.1978149e-02   3.2118526e-02
  -3.3035278e-02   3.2229758e-02
  -2.9983521e-02   3.2340536e-02
  -7.4005127e-03   3.2450830e-02
   1.0833740e-02   3.2560611e-02
   1.3580322e-02   3.2669851e-02
   1.3732910e-02   3.2778521e-02
   1.9378662e-02   3.2886590e-02
   1.3427734e-02   3.2994029e-02
  -4.6539307e-03   3.3100809e-02
  -2.5253296e-02   3.3206900e-02
  -3.9520264e-02   3.3312272e-02
  -3.3874512e-02   3.3416896e-02
  -2.0065308e-02   3.3520742e-02
  -1.4877319e-02   3.3623780e-02
  -2.6092529e-02   3.3725980e-02
  -4.2724609e-02   3.3827314e-02
  -5.7296753e-02   3.3927751e-02
  -5.6991577e-02   3.4027263e-02
  -3.8223267e-02   3.4125820e-02
  -1.2435913e-02   3.4223393e-02
  -9.1552734e-04   3.4319954e-02
  -8.6975098e-03   3.4415474e-02
  -1.7166138e-02   3.4509924e-02
  -1.9073486e-02   3.4603276e-02
  -1.9760132e-02   3.4695504e-02
  -2.2659302e-02   3.4786578e-02
  -1.8768311e-02   3.4876473e-02
  -3.3569336e-03   3.4965161e-02
   2.6016235e-02   3.5052616e-02
   5.6686401e-02   3.5138812e-02
   7.3013306e-02   3.5223723e-02
   9.4604492e-02   3.5307324e-02
   1.2100220e-01   3.5389590e-02
   1.3122559e-01   3.5470498e-02
   1.0368347e-01   3.5550022e-02
   5.1116943e-02   3.5628140e-02
  -6.9427490e-03   3.5704830e-02
  -7.4996948e-02   3.5780068e-02
  -1.5037537e-01   3.5853832e-02
  -2.0462036e-01   3.5926103e-02
  -2.1400452e-01   3.5996859e-02
  -1.8806458e-01   3.6066079e-02
  -1.5342712e-01   3.6133745e-02
  -1.1856079e-01   3.6199838e-02
  -8.3236694e-02   3.6264339e-02
  -4.6615601e-02   3.6327231e-02
  -1.3275146e-02   3.6388496e-02
   1.4038086e-02   3.6448118e-02
   4.6615601e-02   3.6506081e-02
   8.3236694e-02   3.6562371e-02
   1.0643005e-01   3.6616972e-02
   1.1322021e-01   3.6669871e-02
   1.0444641e-01   3.6721054e-02
   8.0490112e-02   3.6770509e-02
   4.8522949e-02   3.6818223e-02
   5.4931641e-03   3.6864186e-02
  -3.7689209e-02   3.6908387e-02
  -6.0272217e-02   3.6950816e-02
  -4.7760010e-02   3.6991463e-02
  -1.2283325e-02   3.7030319e-02
   1.7547607e-03   3.7067378e-02
  -1.2741089e-02   3.7102630e-02
  -2.7999878e-02   3.7136070e-02
  -1.8768311e-02   3.7167691e-02
  -2.2125244e-03   3.7197487e-02
  -6.7901611e-03   3.7225454e-02
  -2.3956299e-02   3.7251588e-02
  -3.9520264e-02   3.7275884e-02
  -3.5781860e-02   3.7298339e-02
  -2.1362305e-02   3.7318952e-02
  -1.3732910e-02   3.7337719e-02
  -9.3841553e-03   3.7354641e-02
  -1.6021729e-02   3.7369715e-02
  -3.5476685e-02   3.7382943e-02
  -5.3939819e-02   3.7394323e-02
  -5.2185059e-02   3.7403858e-02
  -3.2882690e-02   3.7411549e-02
  -1.7623901e-02   3.7417398e-02
  -1.8768311e-02   3.7421407e-02
  -2.6855469e-02   3.7423579e-02
  -2.8839111e-02   3.7423919e-02
  -2.5863647e-02   3.7422430e-02
  -2.6245117e-02   3.7419117e-02
  -2.7999878e-02   3.7413986e-02
  -2.7389526e-02   3.7407041e-02
  -1.5869141e-02   3.7398289e-02
  -5.7983398e-03   3.7387737e-02
  -4.3487549e-03   3.7375392e-02
   6.1035156e-04   3.7361261e-02
   1.3198853e-02   3.7345352e-02
   1.8615723e-02   3.7327674e-02
   1.8768311e-02   3.7308236e-02
   2.0828247e-02   3.7287047e-02
   2.4108887e-02   3.7264116e-02
   2.1209717e-02   3.7239455e-02
   1.0147095e-02   3.7213073e-02
  -3.8909912e-03   3.7184982e-02
  -1.1444092e-02   3.7155194e-02
  -1.7623901e-02   3.7123719e-02
  -2.5863647e-02   3.7090571e-02
  -4.0130615e-02   3.7055761e-02
  -5.4550171e-02   3.7019304e-02
  -5.7525635e-02   3.6981212e-02
  -3.7918091e-02   3.6941499e-02
  -1.1444092e-03   3.6900180e-02
   2.8610229e-02   3.6857268e-02
   3.3340454e-02   3.6812779e-02
   1.4343262e-02   3.6766728e-02
   1.2435913e-02   3.6719131e-02
   4.3716431e-02   3.6670003e-02
   7.3852539e-02   3.6619360e-02
   7.2860718e-02   3.6567221e-02
   2.7313232e-02   3.6513600e-02
  -3.4179688e-02   3.6458516e-02
  -8.1634521e-02   3.6401987e-02
  -1.0643005e-01   3.6344029e-02
  -1.1550903e-01   3.6284662e-02
  -1.0208130e-01   3.6223903e-02
  -5.0888062e-02   3.6161773e-02
   1.7471313e-02   3.6098289e-02
   6.5231323e-02   3.6033471e-02
   7.0266724e-02   3.5967340e-02
   4.1732788e-02   3.5899914e-02
  -3.2043457e-03   3.5831215e-02
  -4.1809082e-02   3.5761262e-02
  -5.0888062e-02   3.5690078e-02
  -3.4179688e-02   3.5617682e-02
  -2.5405884e-02   3.5544096e-02
  -3.4179688e-02   3.5469342e-02
  -4.5318604e-02   3.5393442e-02
  -5.1345825e-02   3.5316417e-02
  -4.6157837e-02   3.5238290e-02
  -4.2724609e-02   3.5159084e-02
  -4.4708252e-02   3.5078821e-02
  -4.7912598e-02   3.4997524e-02
  -5.5084229e-02   3.4915217e-02
  -6.3018799e-02   3.4831923e-02
  -6.1035156e-02   3.4747666e-02
  -4.5700073e-02   3.4662468e-02
  -2.4795532e-02   3.4576355e-02
  -4.5013428e-03   3.4489351e-02
   2.2964478e-02   3.4401479e-02
   5.9890747e-02   3.4312765e-02
   1.0345459e-01   3.4223232e-02
   1.3252258e-01   3.4132907e-02
   1.2504578e-01   3.4041813e-02
   7.3318481e-02   3.3949975e-02
  -1.6021729e-03   3.3857420e-02
  -4.9591064e-02   3.3764171e-02
  -6.1721802e-02   3.3670256e-02
  -6.8969727e-02   3.3575698e-02
  -7.7438354e-02   3.3480524e-02
  -6.9656372e-02   3.3384759e-02
  -4.1275024e-02   3.3288430e-02
  -1.6860962e-02   3.3191561e-02
  -8.6975098e-03   3.3094179e-02
  -1.1978149e-02   3.2996310e-02
  -1.2741089e-02   3.2897980e-02
  -1.2969971e-02   3.2799214e-02
  -2.1514893e-02   3.2700039e-02
  -4.0512085e-02   3.2600481e-02
  -5.7830811e-02   3.2500566e-02
  -5.9738159e-02   3.2400320e-02
  -4.6005249e-02   3.2299768e-02
  -2.5558472e-02   3.2198938e-02
  -1.5335083e-02   3.2097854e-02
  -1.9760132e-02   3.1996543e-02
  -3.0899048e-02   3.1895031e-02
  -2.6245117e-02   3.1793344e-02
  -8.3923340e-03   3.1691507e-02
  -1.6021729e-03   3.1589546e-02
  -7.6293945e-04   3.1487487e-02
   6.1035156e-04   3.1385356e-02
   6.7901611e-03   3.1283177e-02
   1.3198853e-02   3.1180977e-02
   1.7623901e-02   3.1078780e-02
   1.6174316e-02   3.0976611e-02
   3.3569336e-03   3.0874496e-02
  -2.1972656e-02   3.0772460e-02
  -5.4244995e-02   3.0670526e-02
  -8.4533691e-02   3.0568721e-02
  -9.4604492e-02   3.0467067e-02
  -7.9498291e-02   3.0365591e-02
  -4.8294067e-02   3.0264314e-02
  -1.9454956e-02   3.0163263e-02
   2.3651123e-03   3.0062459e-02
   1.2893677e-02   2.9961927e-02
   1.3580322e-02   2.9861690e-02
   1.8386841e-02   2.9761772e-02
   2.9602051e-02   2.9662195e-02
   3.4790039e-02   2.9562981e-02
   2.8152466e-02   2.9464154e-02
   1.6174316e-02   2.9365736e-02
   7.5531006e-03   2.9267748e-02
   1.0299683e-02   2.9170212e-02
   1.2588501e-02   2.9073151e-02
   9.1552734e-04   2.8976585e-02
  -1.8768311e-02   2.8880535e-02
  -3.3035278e-02   2.8785022e-02
  -3.4942627e-02   2.8690067e-02
  -3.4332275e-02   2.8595689e-02
  -3.9978027e-02   2.8501909e-02
  -4.9743652e-02   2.8408747e-02
  -5.2947998e-02   2.8316221e-02
  -4.3563843e-02   2.8224351e-02
  -2.8991699e-02   2.8133156e-02
  -1.6326904e-02   2.8042653e-02
  -9.8419189e-03   2.7952862e-02
   4.9591064e-03   2.7863801e-02
   2.4261475e-02   2.7775486e-02
   3.4103394e-02   2.7687934e-02
   3.7841797e-02   2.7601164e-02
   3.3187866e-02   2.7515191e-02
   1.8920898e-02   2.7430033e-02
  -2.8991699e-03   2.7345703e-02
  -2.5711060e-02   2.7262219e-02
  -4.8065186e-02   2.7179596e-02
  -5.9738159e-02   2.7097848e-02
  -5.9280396e-02   2.7016991e-02
  -5.6228638e-02   2.6937038e-02
  -5.7296753e-02   2.6858003e-02
  -5.3482056e-02   2.6779900e-02
  -3.2196045e-02   2.6702742e-02
  -8.5449219e-03   2.6626542e-02
  -2.0599365e-03   2.6551313e-02
  -1.6021729e-02   2.6477066e-02
  -3.3645630e-02   2.6403813e-02
  -5.2947998e-02   2.6331566e-02
  -6.4010620e-02   2.6260336e-02
  -6.6375732e-02   2.6190133e-02
  -6.7367554e-02   2.6120969e-02
  -5.8975220e-02   2.6052852e-02
  -3.7078857e-02   2.5985792e-02
  -4.0435791e-03   2.5919798e-02
   2.8610229e-02   2.5854881e-02
   4.9819946e-02   2.5791046e-02
   5.5999756e-02   2.5728304e-02
   4.6005249e-02   2.5666661e-02
   2.7999878e-02   2.5606125e-02
   9.0026855e-03   2.5546703e-02
  -2.0599365e-03   2.5488402e-02
  -7.2479248e-03   2.5431227e-02
  -1.1825562e-02   2.5375184e-02
  -1.1291504e-02   2.5320280e-02
   2.8991699e-03   2.5266518e-02
   2.4719238e-02   2.5213904e-02
   2.9754639e-02   2.5162441e-02
   4.5013428e-03   2.5112135e-02
  -2.6855469e-02   2.5062988e-02
  -3.6087036e-02   2.5015003e-02
  -2.5253296e-02   2.4968184e-02
  -4.0435791e-03   2.4922532e-02
   1.7776489e-02   2.4878050e-02
   3.3035278e-02   2.4834740e-02
   3.9520264e-02   2.4792602e-02
   3.0746460e-02   2.4751637e-02
   1.5640259e-02   2.4711847e-02
   3.9672852e-03   2.4673231e-02
   3.2043457e-03   2.4635789e-02
   4.1961670e-03   2.4599521e-02
  -1.4495850e-03   2.4564425e-02
  -1.8463135e-02   2.4530500e-02
  -4.3716431e-02   2.4497745e-02
  -6.7062378e-02   2.4466157e-02
  -7.6904297e-02   2.4435734e-02
  -7.1945190e-02   2.4406474e-02
  -5.9585571e-02   2.4378373e-02
  -5.5999756e-02   2.4351428e-02
  -5.4702759e-02   2.4325635e-02
  -5.2490234e-02   2.4300989e-02
  -4.9209595e-02   2.4277487e-02
  -3.3493042e-02   2.4255124e-02
  -1.0833740e-02   2.4233894e-02
   6.4086914e-03   2.4213792e-02
   1.4877319e-02   2.4194812e-02
   1.6937256e-02   2.4176947e-02
   1.2741089e-02   2.4160192e-02
  -2.5939941e-03   2.4144540e-02
  -2.3498535e-02   2.4129983e-02
  -3.3035278e-02   2.4116514e-02
  -2.4948120e-02   2.4104125e-02
  -6.4849854e-03   2.4092808e-02
   2.8991699e-03   2.4082555e-02
  -1.1444092e-02   2.4073357e-02
  -4.3411255e-02   2.4065206e-02
  -6.8664551e-02   2.4058091e-02
  -5.8975220e-02   2.4052004e-02
  -2.7542114e-02   2.4046934e-02
   5.2642822e-03   2.4042872e-02
   1.9531250e-02   2.4039808e-02
   1.5182495e-02   2.4037730e-02
   5.2642822e-03   2.4036628e-02
  -7.7819824e-03   2.4036490e-02
  -1.5869141e-02   2.4037306e-02
  -8.8500977e-03   2.4039064e-02
   1.4038086e-02   2.4041751e-02
   3.1356812e-02   2.4045357e-02
   3.1356812e-02   2.4049868e-02
   2.4414062e-02   2.4055272e-02
   1.7318726e-02   2.4061556e-02
   6.9427490e-03   2.4068709e-02
  -5.9509277e-03   2.4076715e-02
  -2.5939941e-03   2.4085563e-02
   1.9683838e-02   2.4095238e-02
   4.0817261e-02   2.4105727e-02
   4.2724609e-02   2.4117017e-02
   3.2196045e-02   2.4129092e-02
   2.2659302e-02   2.4141939e-02
   2.6168823e-02   2.4155545e-02
   2.7999878e-02   2.4169893e-02
   3.5095215e-03   2.4184970e-02
  -3.3874512e-02   2.4200760e-02
  -5.3482056e-02   2.4217250e-02
  -3.8986206e-02   2.4234424e-02
  -4.8065186e-03   2.4252267e-02
   1.8081665e-02   2.4270764e-02
   1.4190674e-02   2.4289899e-02
  -1.8310547e-02   2.4309658e-02
  -6.9198608e-02   2.4330024e-02
  -1.1535645e-01   2.4350982e-02
  -1.2687683e-01   2.4372517e-02
  -9.6893311e-02   2.4394614e-02
  -5.6381226e-02   2.4417255e-02
  -3.5324097e-02   2.4440426e-02
  -3.2730103e-02   2.4464111e-02
  -2.9144287e-02   2.4488294e-02
  -2.0904541e-02   2.4512959e-02
  -1.6326904e-02   2.4538090e-02
  -1.2435913e-02   2.4563672e-02
  -7.0953369e-03   2.4589688e-02
  -9.2315674e-03   2.4616123e-02
  -1.2969971e-02   2.4642961e-02
  -1.3122559e-02   2.4670186e-02
  -1.2741089e-02   2.4697782e-02
  -1.4419556e-02   2.4725734e-02
  -2.0065308e-02   2.4754026e-02
  -2.3269653e-02   2.4782642e-02
  -2.5711060e-02   2.4811566e-02
  -3.0136108e-02   2.4840783e-02
  -3.5476685e-02   2.4870278e-02
  -4.0664673e-02   2.4900035e-02
  -4.6463013e-02   2.4930039e-02
  -4.6463013e-02   2.4960274e-02
  -4.1122437e-02   2.4990726e-02
  -3.3874512e-02   2.5021379e-02
  -2.6702881e-02   2.5052218e-02
  -2.0217896e-02   2.5083229e-02
  -2.6245117e-02   2.5114397e-02
  -3.2730103e-02   2.5145707e-02
  -3.7536621e-02   2.5177146e-02
  -4.3869019e-02   2.5208698e-02
  -3.7918091e-02   2.5240349e-02
  -2.3803711e-02   2.5272086e-02
  -1.8157959e-02   2.5303895e-02
  -3.0441284e-02   2.5335762e-02
  -4.6463013e-02   2.5367674e-02
  -4.9362183e-02   2.5399617e-02
  -3.3035278e-02   2.5431578e-02
  -8.0871582e-03   2.5463544e-02
   2.1667480e-02   2.5495504e-02
   5.5694580e-02   2.5527443e-02
   7.5607300e-02   2.5559349e-02
   6.5765381e-02   2.5591212e-02
   3.5781860e-02   2.5623018e-02
   1.7318726e-02   2.5654756e-02
   2.2277832e-02   2.5686414e-02
   4.1427612e-02   2.5717982e-02
   5.0811768e-02   2.5749449e-02
   5.9127808e-02   2.5780802e-02
   7.3013306e-02   2.5812033e-02
   7.1563721e-02   2.5843131e-02
   4.0435791e-02   2.5874086e-02
  -2.4261475e-02   2.5904887e-02
  -8.6517334e-02   2.5935526e-02
  -1.1146545e-01   2.5965994e-02
  -9.6511841e-02   2.5996280e-02
  -6.3323975e-02   2.6026378e-02
  -2.7847290e-02   2.6056277e-02
   1.9073486e-03   2.6085971e-02
   1.2283325e-02   2.6115451e-02
  -3.2043457e-03   2.6144709e-02
  -3.0746460e-02   2.6173739e-02
  -4.7149658e-02   2.6202533e-02
  -4.5318604e-02   2.6231085e-02
  -4.0817261e-02   2.6259388e-02
  -4.2724609e-02   2.6287436e-02
  -4.2572021e-02   2.6315223e-02
  -3.5324097e-02   2.6342744e-02
  -1.6326904e-02   2.6369994e-02
   3.8146973e-03   2.6396967e-02
   1.2283325e-02   2.6423660e-02
   8.3923340e-03   2.6450067e-02
  -8.5449219e-03   2.6476186e-02
  -3.0441284e-02   2.6502011e-02
  -4.1580200e-02   2.6527541e-02
  -3.7689209e-02   2.6552772e-02
  -2.7008057e-02   2.6577701e-02
  -2.3651123e-02   2.6602326e-02
  -2.5711060e-02   2.6626646e-02
  -2.8305054e-02   2.6650658e-02
  -2.3956299e-02   2.6674362e-02
  -1.2969971e-02   2.6697757e-02
  -4.3487549e-03   2.6720841e-02
  -4.6539307e-03   2.6743616e-02
  -9.3841553e-03   2.6766080e-02
  -1.2435913e-02   2.6788236e-02
  -1.1825562e-02   2.6810082e-02
  -1.5869141e-02   2.6831622e-02
  -1.2283325e-02   2.6852856e-02
   3.9672852e-03   2.6873787e-02
   1.9073486e-02   2.6894417e-02
   2.7465820e-02   2.6914750e-02
   2.9602051e-02   2.6934787e-02
   3.4637451e-02   2.6954533e-02
   4.0283203e-02   2.6973993e-02
   4.5471191e-02   2.6993170e-02
   4.2419434e-02   2.7012070e-02
   3.2501221e-02   2.7030697e-02
   1.8615723e-02   2.7049059e-02
   6.1035156e-03   2.7067160e-02
  -3.6621094e-03   2.7085008e-02
  -1.9607544e-02   2.7102609e-02
  -4.8904419e-02   2.7119972e-02
  -7.8430176e-02   2.7137104e-02
  -8.8119507e-02   2.7154014e-02
  -8.5830688e-02   2.7170710e-02
  -7.6141357e-02   2.7187203e-02
  -6.3476562e-02   2.7203503e-02
  -3.7918091e-02   2.7219619e-02
  -1.2130737e-02   2.7235562e-02
  -8.2397461e-03   2.7251345e-02
  -1.4038086e-02   2.7266979e-02
  -2.1209717e-02   2.7282477e-02
  -2.4566650e-02   2.7297851e-02
  -2.2201538e-02   2.7313115e-02
  -1.9073486e-02   2.7328283e-02
  -1.5563965e-02   2.7343370e-02
  -1.4877319e-02   2.7358391e-02
  -1.3275146e-02   2.7373362e-02
  -1.3427734e-02   2.7388299e-02
  -1.1291504e-02   2.7403219e-02
  -6.7901611e-03   2.7418139e-02
  -1.5258789e-04   2.7433077e-02
   9.1552734e-04   2.7448053e-02
  -1.3885498e-02   2.7463084e-02
  -3.8375854e-02   2.7478192e-02
  -5.3253174e-02   2.7493395e-02
  -5.5236816e-02   2.7508717e-02
  -4.2572021e-02   2.7524177e-02
  -3.2882690e-02   2.7539798e-02
  -3.6773682e-02   2.7555603e-02
  -3.6773682e-02   2.7571616e-02
  -2.4414062e-02   2.7587861e-02
  -1.1978149e-02   2.7604361e-02
  -6.2561035e-03   2.7621144e-02
  -2.8991699e-03   2.7638235e-02
   6.9427490e-03   2.7655660e-02
   1.4877319e-02   2.7673447e-02
   1.3198853e-02   2.7691624e-02
   7.0953369e-03   2.7710219e-02
   2.6702881e-03   2.7729263e-02
  -6.1035156e-04   2.7748784e-02
  -6.7901611e-03   2.7768813e-02
  -1.6632080e-02   2.7789383e-02
  -2.6550293e-02   2.7810523e-02
  -3.4942627e-02   2.7832268e-02
  -3.3493042e-02   2.7854651e-02
  -3.3187866e-02   2.7877705e-02
  -2.6702881e-02   2.7901465e-02
  -2.0675659e-02   2.7925966e-02
  -2.1820068e-02   2.7951244e-02
  -1.8157959e-02   2.7977335e-02
   7.7056885e-03   2.8004278e-02
   5.7601929e-02   2.8032109e-02
   1.0978699e-01   2.8060866e-02
   1.3961792e-01   2.8090590e-02
   1.2878418e-01   2.8121320e-02
   7.1868896e-02   2.8153095e-02
  -7.0953369e-03   2.8185958e-02
  -7.0114136e-02   2.8219949e-02
  -9.1705322e-02   2.8255110e-02
  -9.5062256e-02   2.8291485e-02
  -9.6893311e-02   2.8329116e-02
  -8.6975098e-02   2.8368047e-02
  -5.7144165e-02   2.8408322e-02
  -3.1280518e-02   2.8449987e-02
  -3.0593872e-02   2.8493087e-02
  -4.0664673e-02   2.8537667e-02
  -2.5253296e-02   2.8583775e-02
   1.1749268e-02   2.8631456e-02
   2.5100708e-02   2.8680759e-02
   2.3651123e-03   2.8731730e-02
  -3.3187866e-02   2.8784419e-02
  -4.0283203e-02   2.8838874e-02
  -7.2479248e-03   2.8895143e-02
   3.2501221e-02   2.8953277e-02
   4.6768188e-02   2.9013324e-02
   2.6168823e-02   2.9075335e-02
  -9.2315674e-03   2.9139361e-02
  -3.9978027e-02   2.9205451e-02
  -5.4092407e-02   2.9273658e-02
  -5.6228638e-02   2.9344031e-02
  -5.7830811e-02   2.9416622e-02
  -5.2490234e-02   2.9491483e-02
  -3.0441284e-02   2.9568665e-02
  -1.1291504e-02   2.9648221e-02
  -2.7847290e-02   2.9730202e-02
  -7.1411133e-02   2.9814660e-02
  -8.1481934e-02   2.9901648e-02
  -4.5013428e-02   2.9991217e-02
  -4.0435791e-03   3.0083420e-02
   1.7318726e-02   3.0178309e-02
   2.0675659e-02   3.0275936e-02
   1.4877319e-02   3.0376352e-02
   1.2435913e-02   3.0479610e-02
   2.7160645e-02   3.0585762e-02
   5.7296753e-02   3.0694858e-02
   7.4005127e-02   3.0806951e-02
   5.1651001e-02   3.0922092e-02
   6.1035156e-04   3.1040331e-02
  -4.8294067e-02   3.1161718e-02
  -8.2778931e-02   3.1286305e-02
  -1.0108948e-01   3.1414141e-02
  -1.0192871e-01   3.1545275e-02
  -8.0337524e-02   3.1679756e-02
  -4.4021606e-02   3.1817634e-02
  -1.4495850e-03   3.1958956e-02
   2.6168823e-02   3.2103769e-02
   4.2266846e-02   3.2252121e-02
   4.2419434e-02   3.2404058e-02
   2.1362305e-02   3.2559627e-02
  -9.8419189e-03   3.2718871e-02
  -3.5781860e-02   3.2881836e-02
  -4.3411255e-02   3.3048565e-02
  -3.5934448e-02   3.3219102e-02
  -2.2964478e-02   3.3393488e-02
  -1.7623901e-02   3.3571765e-02
  -1.2130737e-02   3.3753973e-02
  -3.0517578e-04   3.3940152e-02
   1.3427734e-02   3.4130342e-02
   1.6021729e-02   3.4324579e-02
  -1.9073486e-03   3.4522900e-02
  -2.9296875e-02   3.4725342e-02
  -4.1809082e-02   3.4931940e-02
  -3.0899048e-02   3.5142726e-02
  -1.1978149e-02   3.5357734e-02
  -3.3569336e-03   3.5576995e-02
  -4.5013428e-03   3.5800540e-02
   9.6893311e-03   3.6028398e-02
   3.8375854e-02   3.6260597e-02
   5.0964355e-02   3.6497164e-02
   4.0283203e-02   3.6738124e-02
   1.1596680e-02   3.6983503e-02
  -2.5100708e-02   3.7233322e-02
  -5.7144165e-02   3.7487603e-02
  -6.8664551e-02   3.7746368e-02
  -5.3253174e-02   3.8009635e-02
  -2.7999878e-02   3.8277421e-02
  -8.3923340e-03   3.8549743e-02
   2.5177002e-03   3.8826616e-02
   6.4086914e-03   3.9108053e-02
   9.1552734e-04   3.9394067e-02
  -1.2130737e-02   3.9684666e-02
  -2.2506714e-02   3.9979861e-02
  -3.0746460e-02   4.0279659e-02
  -4.4403076e-02   4.0584066e-02
  -6.2179565e-02   4.0893086e-02
  -6.7901611e-02   4.1206723e-02
  -4.9209595e-02   4.1524977e-02
  -2.8305054e-02   4.1847847e-02
  -2.0065308e-02   4.2175334e-02
   5.2642822e-03   4.2507432e-02
   6.1874390e-02   4.2844137e-02
   1.0368347e-01   4.3185442e-02
   8.1481934e-02   4.3531340e-02
   2.2125244e-03   4.3881819e-02
  -6.9198608e-02   4.4236869e-02
  -8.8729858e-02   4.4596477e-02
  -6.7214966e-02   4.4960628e-02
  -4.2266846e-02   4.5329306e-02
  -3.1890869e-02   4.5702492e-02
  -3.0136108e-02   4.6080167e-02
  -2.7542114e-02   4.6462310e-02
  -2.7160645e-02   4.6848898e-02
  -3.0899048e-02   4.7239907e-02
